##TITLE=FDM-C175
##JCAMP-DX=4.24
##DATA TYPE=INFRARED SPECTRUM
##DATE=19/12/2018
##SAMPLING PROCEDURE=Diamant-ATR
##ORIGIN=Angelika Moesle
##XUNITS=1/CM
##YUNITS=TRANSMITTANCE
##RESOLUTION=4
##FIRSTX=3997.453
##LASTX=373.96442
##DELTAX=-1.4165319
##MAXY=1.0010616
##MINY=0.95651543
##XFACTOR=1
##YFACTOR=9.3231123e-010
##NPOINTS=2559
##FIRSTY=0.99782741
##XYDATA=(X++(Y..Y))
3997+1070272866+1070051085+1070055304+1070336286+1070578205+1070644055
3989+1070865133+1071498828+1072256744+1072603192+1072305779+1071621770
3980+1071050344+1070881883+1070953807+1070868521+1070421636+1069833012
3972+1069578946+1069923860+1070620656+1071196045+1071453628+1071486937
3963+1071340916+1070953359+1070345876+1069683795+1069207373+1069157186
3955+1069613086+1070349264+1070963013+1071235364+1071326787+1071496143
3946+1071691200+1071665755+1071359392+1070872932+1070288849+1069798745
3938+1069720875+1070111948+1070627050+1070961926+1071174564+1071393788
3929+1071519095+1071435663+1071215992+1070938783+1070574114+1070194932
3921+1070046226+1070167569+1070154527+1069641152+1068929268+1068595414
3912+1068733955+1069037185+1069324624+1069665446+1070076977+1070413069
3904+1070593165+1070724035+1070834445+1070763417+1070442414+1070025832
3895+1069735516+1069740503+1070106450+1070719559+1071268672+1071470442
3887+1071300638+1071023684+1070926955+1070883545+1070602883+1070254069
3878+1070325034+1070843588+1071342962+1071431763+1071201160+1071026050
3870+1070963269+1070733624+1070320303+1070015347+1070038426+1070422019
3861+1070987563+1071362844+1071241501+1070686442+1070112012+1070014388
3853+1070481988+1070916023+1070986220+1070791994+1070440687+1070078320
3844+1069904489+1069930509+1069883711+1069597614+1069245860+1068913093
3836+1068439803+1068000973+1068070404+1068668617+1069200724+1069265743
3827+1069191709+1069485413+1070070840+1070443884+1070422531+1070356617
3819+1070388966+1070144554+1069552670+1069199125+1069447757+1069880514
3810+1070021293+1069851041+1069630859+1069452169+1069189599+1068943780
3802+1069087756+1069701504+1070248124+1070310713+1070009145+1069692234
3793+1069604583+1069767226+1070067515+1070335967+1070454433+1070485248
3785+1070553783+1070598280+1070440176+1070083243+1069761600+1069697029
3776+1069845160+1069923285+1069685457+1069220798+1068981628+1069326862
3768+1070035805+1070589393+1070764695+1070722628+1070742831+1070957451
3759+1071259850+1071400373+1071278070+1071032443+1070818718+1070631525
3751+1070354635+1069961132+1069520512+1069235183+1069680726+1071121437
3742+1072419643+1072603192+1072038799+1071333500+1070735478+1070268838
3734+1069940674+1069745361+1069792288+1070156509+1070501359+1070314166
3725+1069630603+1069127585+1069191901+1069554652+1069917275+1070266664
3717+1070620848+1070885847+1070961542+1070825878+1070574625+1070404246
3708+1070394976+1070416201+1070338012+1070192183+1070137138+1070264810
3700+1070459739+1070501806+1070198321+1069520384+1068793540+1068530140
3691+1068915970+1069545126+1069799768+1069576197+1069291827+1069308130
3683+1069736667+1070363266+1070714509+1070564716+1070294411+1070435061
3674+1070695521+1070316148+1069384720+1068611205+1068478354+1068698601
3666+1068900434+1069206669+1069781163+1070408913+1070732921+1070659207
3657+1070306941+1069817797+1069381524+1069151240+1069142162+1069341758
3649+1069699266+1069994761+1070076722+1070041431+1069941569+1069652085
3640+1069173489+1068858047+1069037569+1069543975+1069899502+1069906215
3632+1069796699+1069804371+1069821441+1069605542+1069245348+1068965453
3623+1068891868+1069184613+1069947771+1070805101+1070989417+1070383660
3615+1069701312+1069565840+1069971873+1070458077+1070612793+1070336926
3606+1069905575+1069741014+1069912544+1070018799+1069682133+1069148939
3598+1069048821+1069556570+1070196914+1070383404+1069932171+1069071964
3589+1068302158+1068265333+1069092998+1069964393+1070237447+1070196467
3581+1070359430+1070726592+1070858484+1070570406+1070240580+1070285908
3572+1070537608+1070407954+1069639426+1068655894+1068124170+1068187399
3564+1068569841+1069186083+1070011447+1070791355+1071222897+1071193169
3555+1070698206+1069790881+1068781009+1068239632+1068534743+1069462270
3547+1070460251+1071081671+1071253457+1071130835+1070870056+1070607806
3538+1070427198+1070253942+1069933833+1069478509+1069097857+1068911623
3530+1068763428+1068523874+1068492483+1069085454+1070075571+1070636575
3521+1070301187+1069461822+1068781585+1068526751+1068564663+1068709789
3513+1068876268+1068984249+1068972294+1068967691+1069220031+1069718894
3504+1070077489+1069931468+1069406074+1068990579+1068954777+1069114032
3496+1069146253+1068977153+1068781329+1068726539+1068873519+1069188768
3488+1069519873+1069696709+1069742676+1069805777+1069885117+1069811787
3479+1069512137+1069132061+1068876971+1068802746+1068821095+1068899731
3471+1069113392+1069439446+1069697285+1069723880+1069482920+1069101501
3462+1068934318+1069271560+1069796571+1069774578+1068995565+1068079929
3454+1067672810+1067777147+1068030766+1068243532+1068472920+1068785868
3445+1069101501+1069263057+1069197207+1068929460+1068506165+1068029998
3437+1067724595+1067775932+1068094890+1068371652+1068387699+1068217895
3428+1068102753+1068178065+1068362509+1068470683+1068388018+1068215210
3420+1068283106+1068785932+1069340799+1069258390+1068391471+1067378722
3411+1066925251+1067180660+1067874899+1068654168+1069173297+1069199381
3403+1068836886+1068518184+1068579623+1068872176+1068905869+1068388594
3394+1067527044+1066842203+1066786710+1067403655+1068296723+1069021010
3386+1069394886+1069352562+1068883492+1068279973+1067951618+1067816018
3377+1067363506+1066389308+1065270624+1064581180+1064713072+1065641430
3369+1066883056+1067866524+1068365322+1068480976+1068416916+1068383735
3360+1068490949+1068652506+1068712154+1068615233+1068407390+1068185226
3352+1068036136+1067928602+1067721526+1067358583+1066983302+1066821745
3343+1066970195+1067294651+1067542004+1067570838+1067444764+1067299830
3335+1067197474+1067153105+1067241587+1067526916+1067881676+1068034729
3326+1067884489+1067606320+1067368557+1067100489+1066658526+1066119770
3318+1065803370+1065945299+1066357214+1066551056+1066301849+1065915763
3309+1065773386+1065812129+1065707216+1065398552+1065132275+1065084901
3301+1065218455+1065405457+1065479810+1065303229+1064966690+1064706678
3292+1064543012+1064310427+1064056105+1064004831+1064149126+1064287475
3284+1064387529+1064487519+1064378259+1063847047+1063154342+1062821959
3275+1062967788+1063254716+1063478414+1063772182+1064211844+1064608031
3267+1064711026+1064395009+1063775826+1063293267+1063373182+1063863989
3258+1064187613+1064156670+1064176873+1064531760+1064969312+1065155993
3250+1065086179+1064872518+1064534701+1064162808+1063941666+1063904266
3241+1063930031+1063963148+1063967687+1063800057+1063410454+1063053138
3233+1063067650+1063547461+1064319569+1065113542+1065673204+1065811298
3224+1065502953+1064996163+1064743887+1065026147+1065597700+1065890638
3216+1065652235+1065206244+1064972508+1064899945+1064630024+1064112237
3207+1063716817+1063704159+1063907463+1064036222+1064041401+1064058470
3199+1064181604+1064400124+1064628106+1064716524+1064565836+1064282744
3190+1064091779+1064050415+1064024203+1063944671+1063875113+1063779023
3182+1063465436+1062895353+1062358323+1062180208+1062330385+1062500380
3173+1062519880+1062508564+1062638154+1062917793+1063200949+1063301770
3165+1063153000+1062905199+1062770174+1062769982+1062755981+1062615522
3156+1062362223+1062149521+1062216394+1062615075+1062992658+1062905454
3148+1062330769+1061608016+1061028535+1060765007+1060951113+1061463273
3139+1061849104+1061808827+1061541271+1061384125+1061370891+1061395314
3131+1061564542+1062046910+1062655224+1062915875+1062615778+1062039046
3122+1061580461+1061361557+1061258499+1061072264+1060727031+1060476289
3114+1060706956+1061362133+1061892769+1061911949+1061515698+1060957378
3105+1060470216+1060392666+1060996825+1062117171+1063175056+1063576806
3097+1063104795+1062103106+1061260161+1061014598+1061227300+1061514483
3088+1061702380+1061826792+1061891810+1061870329+1061895519+1062220933
3080+1062872210+1063445489+1063449325+1062851815+1062122350+1061708709
3071+1061634228+1061635123+1061540631+1061443135+1061559236+1061921347
3063+1062218440+1062082264+1061569209+1061181780+1061336240+1061941294
3054+1062572943+1062949056+1063133884+1063336996+1063609603+1063794111
3046+1063749167+1063520929+1063272872+1063133053+1063118029+1063126148
3037+1063044571+1062902641+1062828992+1062857441+1062931027+1063014778
3029+1063037410+1062883206+1062640136+1062606060+1062853350+1063065604
3020+1062981853+1062734692+1062616737+1062756876+1063107160+1063529944
3012+1063826269+1063841229+1063617211+1063361674+1063260725+1063379639
3003+1063660493+1063922487+1063993260+1063932652+1063952215+1064058023
2995+1064041656+1063883105+1063823392+1063960207+1064092291+1064028486
2986+1063821218+1063651990+1063636007+1063726343+1063749295+1063593684
2978+1063355281+1063179468+1063004613+1062636939+1062086292+1061612171
2969+1061352351+1061072137+1060466508+1059600163+1058840713+1058397856
2961+1058158238+1057983384+1057944129+1058152676+1058490813+1058632870
2952+1058364611+1057837874+1057459715+1057540590+1058046165+1058595725
2944+1058708438+1058237002+1057541421+1057001514+1056500989+1055718268
2935+1054725146+1053887124+1053371831+1053084712+1052924881+1052853917
2927+1052810890+1052676441+1052354159+1051899794+1051478864+1051153514
2918+1050878861+1050742174+1050935313+1051481614+1052234159+1053124669
2910+1054172453+1055265693+1056139837+1056638379+1056886052+1057144722
2901+1057546919+1058015925+1058410834+1058688427+1058931561+1059235303
2893+1059581239+1059873217+1060094550+1060316459+1060569758+1060831432
2884+1061094705+1061292766+1061224743+1060766285+1060124726+1059665246
2876+1059486300+1059359203+1059095291+1058769557+1058553914+1058508714
2867+1058575075+1058637985+1058551612+1058202031+1057592183+1056858050
2859+1056197248+1055763021+1055606707+1055648582+1055699920+1055612908
2850+1055494953+1055662136+1056278377+1057147215+1057954742+1058589013
2842+1059152574+1059775721+1060494190+1061224679+1061827239+1062245036
2833+1062574606+1062940297+1063328366+1063616252+1063756455+1063846599
2825+1063985524+1064126175+1064143820+1064005599+1063779662+1063523934
2816+1063289303+1063202163+1063380726+1063750957+1064061156+1064109297
2808+1063931501+1063758821+1063762784+1063828571+1063682613+1063316602
2799+1063099808+1063316730+1063770840+1064036670+1063980090+1063828379
2791+1063814505+1063943840+1064089030+1064168881+1064208455+1064244129
2782+1064236841+1064186974+1064281466+1064689481+1065215386+1065454812
2774+1065317166+1065082663+1064943739+1064807180+1064555799+1064250714
2765+1064055721+1064089158+1064335680+1064678101+1065022375+1065326628
2757+1065502122+1065434801+1065143527+1064792156+1064535340+1064427423
2748+1064455105+1064576193+1064731868+1064877313+1065001342+1065078444
2740+1065031581+1064831090+1064617045+1064572229+1064671707+1064734745
2731+1064704569+1064672411+1064659177+1064584248+1064429021+1064285685
2723+1064272004+1064453955+1064798421+1065179201+1065468813+1065593161
2714+1065538371+1065378861+1065236995+1065133234+1064974874+1064746956
2706+1064575745+1064549214+1064610780+1064672986+1064717291+1064759934
2697+1064796759+1064793562+1064720871+1064612890+1064564110+1064626827
2689+1064735256+1064774127+1064702395+1064590705+1064551387+1064614105
2680+1064680850+1064639102+1064475692+1064254422+1064080463+1064105716
2672+1064401914+1064791133+1064993414+1064961576+1064889780+1064912796
2663+1064973851+1064971933+1064929610+1064978070+1065160405+1065277912
2655+1065089440+1064681617+1064412143+1064409138+1064416874+1064254870
2646+1064100666+1064129499+1064230512+1064343096+1064677270+1065268002
2638+1065696540+1065603263+1065162962+1064780136+1064609885+1064573891
2629+1064605602+1064706870+1064816194+1064727776+1064316245+1063845449
2621+1063735613+1063975487+1064152962+1064097149+1064080399+1064361125
2612+1064858006+1065275930+1065387492+1065240448+1065107597+1065137325
2604+1065176196+1065077037+1064998017+1065183868+1065573342+1065814622
2595+1065667514+1065252467+1064875907+1064727392+1064838826+1065206819
2587+1065737776+1066150586+1066232802+1066172834+1066325760+1066681286
2578+1066938229+1067029525+1067112125+1067089365+1066688255+1066008528
2570+1065509410+1065382825+1065345488+1065156121+1065009972+1065215003
2561+1065696667+1066137224+1066483736+1066899295+1067244209+1067098507
2553+1066408424+1065668026+1065298051+1065203751+1065155226+1065305595
2544+1065934942+1066800775+1067251497+1067057910+1066632890+1066313996
2536+1065999706+1065622314+1065422654+1065550135+1065822358+1066015497
2527+1066082754+1066049125+1065975667+1066036658+1066387007+1066923973
2519+1067340554+1067390421+1067046083+1066503555+1066072652+1065900995
2510+1065836807+1065732022+1065727099+1066004565+1066433230+1066677962
2502+1066572410+1066265536+1066027644+1065926439+1065790200+1065547322
2493+1065404817+1065576155+1066036019+1066579954+1066958943+1067035470
2485+1066916492+1066782107+1066632442+1066410342+1066186963+1065995678
2476+1065782912+1065672245+1065909689+1066427028+1066807360+1066738250
2468+1066316298+1065939482+1065995486+1066530151+1067171965+1067501727
2459+1067448344+1067196387+1066855501+1066476831+1066292515+1066567359
2451+1067150228+1067512724+1067362483+1066932220+1066580657+1066442755
2442+1066553358+1066914830+1067261023+1067097932+1066251598+1065233096
2434+1064862865+1065484349+1066568830+1067172029+1066862917+1066123862
2425+1065737968+1065923435+1066258375+1066333815+1066203713+1066139461
2417+1066177117+1066094006+1065787004+1065494386+1065541248+1065926823
2408+1066351205+1066665495+1067000755+1067355834+1067450390+1067166979
2400+1066778335+1066589671+1066647594+1066801095+1066798602+1066449852
2391+1065858799+1065312180+1064975513+1064929162+1065289675+1065970553
2383+1066562500+1066722011+1066487060+1066097778+1065735155+1065491509
2374+1065401493+1065467854+1065747174+1066318983+1067087639+1067750615
2366+1068072066+1068062540+1067817999+1067408322+1066985603+1066668308
2357+1066331577+1065875102+1065498478+1065361407+1065341013+1065313458
2349+1065299393+1065309814+1065280469+1065144358+1064918166+1064721447
2340+1064704313+1064909791+1065279191+1065734515+1066122647+1066266495
2332+1066219504+1066126931+1065806503+1064963494+1063777361+1062837431
2323+1062605165+1063125317+1064071193+1064922961+1065243964+1064952114
2315+1064354157+1063918651+1063965961+1064498963+1065302334+1066111843
2306+1066656481+1066697077+1066198535+1065451871+1064904996+1064788703
2298+1064893808+1064799508+1064357737+1063833493+1063501494+1063297486
2289+1063050708+1062904432+1063201588+1063966152+1064756418+1065065977
2281+1064726114+1064030468+1063602890+1063936360+1064891890+1065845054
2272+1066327933+1066276852+1065774665+1064965795+1064172398+1063819620
2264+1064190107+1065220437+1066454966+1067268055+1067222855+1066295967
2255+1064916504+1063764383+1063316730+1063584158+1064375766+1065574237
2247+1066951399+1067952065+1068023030+1067211667+1066288935+1066081539
2238+1066650343+1067243761+1067150101+1066524716+1066203649+1066613198
2230+1067094735+1066628031+1065114118+1063540812+1062918049+1063408025
2221+1064464887+1065536709+1066465132+1067168321+1067385435+1067247853
2213+1067649474+1069137047+1070715723+1070733624+1068983227+1067043462
2204+1066355488+1066674318+1066799880+1066296543+1065820312+1065871905
2196+1065934687+1065248439+1064135509+1063805107+1064655341+1065663487
2187+1065974133+1066009551+1066254539+1066183766+1065397913+1064786849
2179+1065580375+1067860323+1070453666+1071828974+1071022150+1068210159
2170+1064915289+1063303240+1064499346+1067513555+1070309435+1071762101
2162+1072178618+1072364981+1072603192+1072433580+1071587438+1070491066
2153+1069239786+1067243058+1064578878+1062516172+1062036169+1062852071
2145+1064191961+1065566438+1066697141+1067454929+1067903413+1068148593
2136+1068268018+1068335850+1068379388+1068443959+1068670407+1069055342
2128+1069271177+1068988980+1068261241+1067371625+1066528616+1065971128
2119+1065977841+1066356255+1066374092+1065700631+1064952561+1064829620
2111+1065230155+1065661377+1066022593+1066602202+1067568856+1068584674
2102+1068934638+1068299408+1067281225+1066693881+1066565313+1066383554
2094+1066041326+1065888400+1066011597+1066046696+1065738927+1065315568
2085+1065092509+1064947127+1064527029+1063858363+1063367939+1063274982
2077+1063323954+1063309633+1063570604+1064596395+1066287976+1067976551
2068+1069053360+1069253212+1068625590+1067711297+1067350592+1067774845
2060+1068280868+1068146355+1067379553+1066350757+1065294790+1064339900
2051+1063440694+1062315361+1061143485+1060990559+1062469565+1064553369
2043+1065893195+1066534178+1067200799+1067769475+1067756689+1067510933
2034+1067619618+1067746396+1067262877+1066458611+1065966077+1065499948
2026+1064294508+1062586050+1061748475+1062790504+1065095833+1066810493
2017+1066637045+1065251252+1064250778+1063827100+1062884868+1061469539
2009+1061274610+1063028843+1065046414+1065407566+1064178919+1062679518
2000+1061814005+1061618756+1061815028+1062387732+1063500535+1064878144
1992+1065649358+1065153756+1063845385+1063225946+1064663268+1067688025
1983+1069844137+1069367011+1067533054+1066939188+1068007878+1068866806
1975+1068320442+1067120436+1066765101+1068035113+1070272098+1072019172
1966+1072603192+1072490671+1072136807+1071672404+1071211197+1070534540
1958+1069169844+1067403080+1066408104+1066923717+1068331119+1069290356
1949+1068968842+1067520971+1065745512+1064534445+1064377364+1064976728
1941+1065534983+1065753503+1066065684+1066816567+1067778617+1068479313
1932+1068570992+1067947206+1066878581+1065903360+1065375408+1065295941
1924+1065567397+1066041517+1066356639+1066099184+1065279127+1064531376
1915+1064507849+1065149984+1065850616+1066109158+1065916978+1065598979
1907+1065423230+1065472777+1065751969+1066206782+1066687807+1067069418
1898+1067355131+1067493608+1067249387+1066557258+1065788666+1065350603
1890+1065248759+1065191220+1064992775+1064763962+1064766135+1065096536
1881+1065528718+1065776647+1065807334+1065734132+1065572831+1065268066
1873+1064879231+1064667935+1064973084+1065803754+1066631099+1067034639
1864+1067184240+1067404103+1067658872+1067613928+1067167938+1066708138
1856+1066621318+1066727701+1066549011+1066055774+1065746023+1065953099
1847+1066435531+1066733902+1066691387+1066513464+1066347816+1066131726
1839+1065880920+1065762965+1065822806+1065871010+1065807590+1065810275
1830+1066060697+1066387007+1066433805+1066102764+1065617647+1065312435
1822+1065358466+1065684073+1066086973+1066347049+1066328125+1066052322
1813+1065669432+1065341397+1065178178+1065250101+1065533257+1065827089
1805+1065888208+1065686822+1065387044+1065077996+1064728607+1064413102
1796+1064306016+1064486752+1064878400+1065278232+1065470476+1065404306
1788+1065152349+1064812230+1064549277+1064561744+1064889908+1065340949
1779+1065648782+1065690082+1065513118+1065222611+1064952242+1064876418
1771+1065042897+1065260075+1065314098+1065169163+1064967330+1064860499
1762+1064837739+1064724899+1064426911+1064060261+1063779215+1063602187
1754+1063458723+1063352915+1063349911+1063404700+1063371520+1063214183
1745+1063009792+1062838518+1062778230+1062874639+1063047576+1063152488
1737+1063135099+1062932817+1062419890+1061792907+1061468196+1061460652
1728+1061523689+1061560834+1061678149+1061878832+1061933686+1061650786
1720+1061073671+1060463311+1060216277+1060419965+1060712518+1060870878
1711+1060994012+1061230816+1061519150+1061599001+1061310603+1060815705
1703+1060332250+1059893356+1059507206+1059241632+1059011412+1058613946
1694+1058022190+1057367845+1056689397+1055993624+1055420984+1055112128
1686+1054946991+1054554767+1053820315+1053057413+1052315608+1051358288
1677+1049892644+1047681104+1044879854+1042060702+1039561404+1037449342
1669+1035953905+1035241190+1035154178+1035627148+1036797298+1038589571
1660+1040565649+1042357028+1043871644+1045293942+1047140110+1049642925
1652+1051633388+1052570889+1053150498+1053841157+1054677837+1055393301
1643+1055775551+1055775743+1055394708+1054576376+1053109134+1050865436
1635+1048437038+1046580384+1045191267+1043864356+1042304028+1040351221
1626+1038061044+1035587574+1033071141+1030761146+1028884674+1027438209
1618+1026406344+1025961505+1026173248+1026843512+1027841237+1029136374
1609+1030650032+1032238745+1033794725+1035315926+1036827730+1038265499
1601+1039562171+1040794335+1042065433+1043331162+1044453810+1045320730
1592+1045869267+1046130430+1046269483+1046460448+1046731520+1047031809
1584+1047388934+1047871750+1048462355+1049104297+1049842585+1050754769
1575+1051673921+1052317846+1052676761+1052884540+1053081963+1053383786
1567+1053778823+1054159283+1054424410+1054547735+1054618699+1054862089
1558+1055426482+1056011844+1056399273+1056591901+1056633776+1056673990
1550+1056856324+1057127908+1057320535+1057332874+1057142740+1056829025
1541+1056699818+1057103358+1057747410+1058143534+1058265964+1058194040
1533+1057876297+1057269837+1056501053+1055778876+1055277392+1054984327
1524+1054686915+1054254542+1053852025+1053759004+1054024003+1054543387
1516+1055188654+1055767879+1056121936+1056215021+1056115287+1055973997
1507+1056050204+1056449332+1056830943+1056964817+1056843665+1056473243
1499+1055878162+1055183348+1054578997+1054156086+1053908797+1053875169
1490+1054132112+1054632892+1055182005+1055645897+1055995094+1056210482
1482+1056238676+1056010758+1055533632+1054949165+1054464431+1054170663
1473+1053889809+1053353482+1052622099+1051983417+1051631598+1051644257
1465+1051935340+1052231090+1052323344+1052146891+1051574251+1050481204
1456+1049324863+1048766863+1048632222+1048391326+1047672154+1046392999
1448+1044786193+1043232706+1041991784+1041166228+1040814345+1040942018
1439+1041534477+1042637306+1044106467+1045394891+1046208619+1046778254
1431+1047380879+1048074223+1048749474+1049319557+1049791376+1050258528
1422+1050892415+1051814828+1052872201+1053632035+1053930598+1054009682
1414+1054023875+1053953422+1053780613+1053512929+1053100375+1052477484
1405+1051704992+1050988889+1050474299+1050134627+1049910290+1049819762
1397+1049942767+1050343941+1050954237+1051552706+1051981435+1052234287
1388+1052317782+1052206796+1051952857+1051637544+1051218661+1050602163
1380+1049857354+1049242774+1048984680+1049091127+1049345961+1049452983
1371+1049224617+1048625957+1047728094+1046665286+1045554210+1044515377
1363+1043784568+1043565281+1043763407+1044147511+1044606800+1045124011
1354+1045707263+1046400863+1047212481+1048005432+1048585232+1048883476
1346+1048935708+1048734961+1048271773+1047719208+1047466164+1047840231
1337+1048756379+1049795851+1050601396+1051081910+1051342114+1051518119
1329+1051679292+1051848328+1052038782+1052253402+1052496920+1052809995
1320+1053241409+1053757661+1054243929+1054646638+1055049538+1055532162
1312+1056001743+1056261883+1056239954+1056045217+1055787890+1055440994
1303+1054969751+1054512764+1054317771+1054511357+1054985158+1055461389
1295+1055667506+1055549359+1055308399+1055169986+1055198628+1055393301
1286+1055751641+1056094317+1056040166+1055334036+1054091835+1052660330
1278+1051391789+1050564124+1050318880+1050574736+1051052437+1051409626
1269+1051395369+1051033194+1050699979+1050851498+1051561657+1052437143
1261+1052997061+1052993800+1052394373+1051255869+1049676106+1047798547
1252+1045847275+1044120532+1042856466+1042124315+1041929450+1042340661
1244+1043414913+1045049146+1046984308+1048908537+1050547501+1051733186
1235+1052433307+1052727459+1052782888+1052795739+1052842601+1052820097
1227+1052622419+1052324878+1052101116+1052047733+1052170163+1052418603
1218+1052677784+1052863187+1053070327+1053484479+1054112549+1054723037
1210+1055063283+1055085532+1054973906+1054978509+1055179064+1055401101
1201+1055400014+1055136550+1054811710+1054609237+1054482971+1054253455
1193+1053824407+1053180226+1052231346+1050811541+1048894856+1046809325
1184+1045131427+1044263036+1044129227+1044358999+1044642090+1044808761
1176+1044722836+1044242322+1043225098+1041573667+1039380284+1037003735
1167+1034910916+1033461831+1032810426+1032877427+1033380445+1033964593
1159+1034350487+1034432704+1034334632+1034356113+1034761891+1035581756
1150+1036656903+1037841821+1039059025+1040195227+1041144491+1041956429
1142+1042751297+1043498025+1044078720+1044536474+1045067686+1045790887
1133+1046615483+1047274815+1047498066+1047315220+1047142476+1047377043
1125+1047980051+1048635930+1049183637+1049675978+1050150547+1050564187
1116+1050853544+1050934035+1050763592+1050481587+1050342535+1050487980
1108+1050896251+1051468188+1052009437+1052296748+1052317079+1052248032
1099+1052053295+1051330926+1049749181+1047468721+1044999663+1042779619
1091+1041012279+1039796802+1039219942+1039256383+1039709534+1040407929
1082+1041392228+1042710509+1044117399+1045235252+1045949822+1046384113
1074+1046589846+1046542920+1046324208+1046058570+1045760327+1045365930
1065+1044837786+1044219499+1043660029+1043318311+1043227400+1043345163
1057+1043661755+1044101544+1044431114+1044459884+1044319744+1044419990
1048+1045066791+1046103962+1047002273+1047383116+1047377874+1047393218
1040+1047625611+1047921297+1048069556+1048084004+1048106892+1048135853
1031+1048055171+1047890354+1047802255+1047849821+1047956140+1048056194
1023+1048098900+1047988426+1047693251+1047403511+1047461625+1048079913
1014+1049132811+1050264729+1051174931+1051757992+1052054382+1052194776
1006+1052345592+1052598508+1052898094+1053111755+1053160024+1053107791
997+1053125373+1053329572+1053660612+1053925611+1053961861+1053778631
989+1053553910+1053465428+1053566696+1053822233+1054114403+1054197962
980+1053850938+1053135538+1052380499+1051910278+1051868723+1052226167
972+1052832947+1053488635+1054014924+1054301468+1054357984+1054314255
963+1054285485+1054245464+1054095734+1053822872+1053517852+1053270115
955+1053140269+1053234057+1053665216+1054319305+1054772712+1054652328
946+1054064600+1053516190+1053404884+1053693154+1054069458+1054312912
938+1054443078+1054583217+1054809856+1055135655+1055497063+1055735146
929+1055712450+1055475262+1055202272+1055034258+1055029591+1055203870
921+1055502817+1055809819+1056072132+1056329459+1056530973+1056463269
912+1056012484+1055380642+1054848535+1054383749+1053703831+1052742547
904+1051887071+1051677629+1052317143+1053471885+1054524847+1055043976
895+1055037774+1054776803+1054465710+1054146561+1053813538+1053502828
887+1053305533+1053319982+1053541954+1053808935+1053941338+1053928744
878+1053900102+1053924588+1053928424+1053844737+1053778184+1053866282
870+1053955915+1053687144+1053056326+1052600106+1052781162+1053439919
861+1054075468+1054419870+1054504261+1054366040+1053957321+1053257968
853+1052286072+1051029294+1049493900+1047761786+1045883141+1043912177
844+1042302110+1041957004+1043376809+1045883844+1048168650+1049513719
836+1050135459+1050529920+1050938446+1051402849+1051944290+1052519680
827+1052952692+1053081259+1052948600+1052739670+1052560852+1052369567
819+1052062437+1051603085+1051147312+1050976486+1051173461+1051493889
810+1051684662+1051768413+1051905292+1052103609+1052084238+1051383542
802+1049778653+1047784418+1046515557+1046793854+1048432626+1050504794
793+1052153988+1052983827+1052965926+1052400063+1051822883+1051555775
785+1051463585+1051366216+1051320313+1051282785+1050999182+1050459275
776+1049987584+1049677193+1049135752+1047958058+1046246275+1044640939
768+1043925347+1044465318+1045868948+1047275902+1048097430+1048381928
759+1048378604+1048017323+1047110446+1045837237+1044583464+1043356351
751+1041753061+1039664782+1037785241+1037151738+1038158605+1040171316
742+1042146627+1043498920+1044400171+1045367848+1046497528+1047135699
734+1046587865+1045003115+1043072364+1041081134+1038937490+1036989094
725+1036095131+1036802348+1038889733+1041696417+1044550987+1046939491
717+1048598914+1049560005+1049998324+1050096012+1050096907+1050261213
708+1050563612+1050686873+1050528961+1050426030+1050674918+1051112342
700+1051351384+1051266738+1051120908+1051214058+1051499834+1051696553
691+1051674369+1051442679+1050869399+1049834210+1048625637+1047756672
683+1047360740+1047104756+1046768729+1046620470+1047043253+1048030685
674+1049229988+1050275342+1050952703+1051223520+1051324532+1051711833
666+1052374937+1052903656+1053127866+1053191926+1053342422+1053546813
657+1053479812+1053006139+1052365028+1051819751+1051434240+1051188165
649+1051122826+1051402402+1052119400+1052929229+1053340568+1053565034
640+1054319944+1055534975+1056173273+1055646408+1054600031+1054023939
632+1054147520+1054385411+1054101552+1053339098+1052749068+1052789154
623+1053235719+1053527825+1053310776+1052707384+1052308128+1052673308
615+1053613494+1054327297+1054445635+1054502663+1055073768+1055859430
606+1056110236+1055673580+1055077732+1054742472+1054591464+1054412071
598+1054274297+1054459764+1055011243+1055491181+1055420536+1054906969
589+1054477473+1054376013+1054461746+1054630719+1054850965+1054865158
581+1054320264+1053270243+1052202512+1051504693+1051161186+1050957498
572+1050803166+1050923358+1051736063+1053203434+1054405805+1054431378
564+1053603393+1053090402+1053461464+1054350952+1055343882+1056360914
555+1057243049+1057690894+1057622231+1057122026+1056153710+1054733969
547+1053196721+1051924216+1051093929+1050955708+1051871280+1053569253
538+1054705263+1053912953+1051489221+1049431118+1049262849+1050354170
530+1051090477+1051081143+1051188549+1051845963+1052551390+1052843048
521+1052627469+1051893017+1051009986+1050776954+1051382263+1052020753
513+1052156545+1052369055+1053424767+1055038861+1056196800+1056459050
504+1056239890+1055959036+1055635156+1055252459+1054888429+1054429141
496+1053771854+1053438960+1054254542+1055965685+1057091466+1056831902
487+1056045217+1055859750+1056406306+1057235186+1058000709+1058371068
479+1058068221+1057269006+1056477654+1055861284+1055003187+1053579802
470+1052174830+1051687219+1052030087+1052266700+1051977343+1051499706
462+1050795366+1049434826+1047941052+1047803662+1049337969+1051123018
453+1052122725+1052457474+1052560596+1052818179+1053663361+1055075814
445+1056110044+1055834944+1054783836+1054523824+1055647112+1057103550
436+1057588283+1057209997+1057227130+1058162521+1059244892+1059625992
428+1059185244+1058233678+1057315293+1057405693+1059681037+1064664611
419+1070211107+1071121245+1066681606+1062493732+1062906669+1067527428
411+1072100238+1072603192+1069015832+1063502581+1059492629+1058742258
402+1060331739+1062498910+1064697025+1066799561+1067814739+1067734632
394+1067870232+1068661009+1069836337+1071359648+1072603192+1073648866
385+1073283557+1073416025+1073741823+1071363676+1065440044+1058530898
377+1055438885+1061036590+1072603192
##END=
