##TITLE=Spectrum
##JCAMP-DX=5.00 $$ chemotion-converter-app (0.1.0)
##DATA TYPE=CYCLIC VOLTAMMETRY
##DATA CLASS=XYPOINTS
##ORIGIN=
##OWNER=
##FIRSTX=1.49048
##LASTX=1.50049
##MINX=-1.9005
##MAXX=1.50049
##MINY=-3.07144e-06
##MAXY=5.34724e-06
##NPOINTS=680
##FIRSTY=5.34724E-06
##XUNITS=V vs Ref
##YUNITS=A
##XYPOINTS=(XY..XY)
1.49048, 5.34724E-06
1.48049, 4.81545E-06
1.47048, 4.39585E-06
1.4603, 4.03827E-06
1.45028, 3.75535E-06
1.44028, 3.51137E-06
1.43031, 3.30386E-06
1.42029, 3.12825E-06
1.41033, 2.96791E-06
1.40032, 2.83767E-06
1.39032, 2.72045E-06
1.38033, 2.62302E-06
1.37033, 2.54135E-06
1.36033, 2.46733E-06
1.35033, 2.40966E-06
1.3403, 2.35496E-06
1.3303, 2.30822E-06
1.32031, 2.26844E-06
1.31033, 2.22752E-06
1.30034, 2.19654E-06
1.29034, 2.16149E-06
1.28035, 2.13405E-06
1.27033, 2.10553E-06
1.26032, 2.07961E-06
1.25034, 2.05538E-06
1.24032, 2.03078E-06
1.23036, 2.01071E-06
1.22034, 1.98728E-06
1.21034, 1.96737E-06
1.20034, 1.94665E-06
1.19035, 1.92614E-06
1.18035, 1.9073E-06
1.17035, 1.8869E-06
1.16035, 1.86775E-06
1.15035, 1.84695E-06
1.14034, 1.82693E-06
1.13035, 1.80441E-06
1.12033, 1.78108E-06
1.11032, 1.75485E-06
1.10032, 1.72402E-06
1.09033, 1.68839E-06
1.08033, 1.6432E-06
1.07034, 1.58889E-06
1.06034, 1.51897E-06
1.05034, 1.43413E-06
1.04033, 1.33108E-06
1.03032, 1.21146E-06
1.02033, 1.07999E-06
1.01032, 9.456E-07
1.00035, 8.19646E-07
0.990341, 7.13221E-07
0.980329, 6.36902E-07
0.970335, 6.05514E-07
0.960343, 6.26731E-07
0.950342, 7.32062E-07
0.940326, 8.08074E-07
0.930319, 8.57177E-07
0.920312, 8.95249E-07
0.910339, 9.27491E-07
0.900162, 9.5427E-07
0.890147, 9.783E-07
0.880152, 1.0001E-06
0.870155, 1.02105E-06
0.860151, 1.04076E-06
0.85014, 1.06359E-06
0.840156, 1.08684E-06
0.830131, 1.11634E-06
0.820166, 1.15049E-06
0.81017, 1.19009E-06
0.800172, 1.24084E-06
0.790173, 1.2942E-06
0.780167, 1.35859E-06
0.770192, 1.42621E-06
0.760177, 1.49551E-06
0.750181, 1.56266E-06
0.740178, 1.62763E-06
0.730173, 1.68067E-06
0.720185, 1.72703E-06
0.710158, 1.76093E-06
0.700157, 1.78566E-06
0.690154, 1.79854E-06
0.680178, 1.80587E-06
0.670158, 1.80513E-06
0.660173, 1.79873E-06
0.650178, 1.79063E-06
0.640193, 1.7763E-06
0.630169, 1.76283E-06
0.620162, 1.74476E-06
0.61023, 1.72856E-06
0.60022, 1.70862E-06
0.590243, 1.69044E-06
0.580233, 1.67049E-06
0.570243, 1.65092E-06
0.560236, 1.63209E-06
0.550248, 1.61151E-06
0.540243, 1.59426E-06
0.530231, 1.57533E-06
0.520231, 1.55847E-06
0.51022, 1.54274E-06
0.50023, 1.52674E-06
0.490238, 1.51447E-06
0.480245, 1.49923E-06
0.470239, 1.48777E-06
0.460241, 1.47727E-06
0.450247, 1.46626E-06
0.440264, 1.45967E-06
0.430245, 1.45118E-06
0.420234, 1.44607E-06
0.410254, 1.44173E-06
0.400253, 1.43833E-06
0.390259, 1.43608E-06
0.380252, 1.43528E-06
0.370248, 1.43447E-06
0.360257, 1.43418E-06
0.350255, 1.43714E-06
0.340052, 1.43739E-06
0.330068, 1.43902E-06
0.320059, 1.44191E-06
0.310045, 1.44408E-06
0.300048, 1.44709E-06
0.290041, 1.45125E-06
0.280042, 1.45843E-06
0.270048, 1.4653E-06
0.260057, 1.47367E-06
0.250056, 1.48223E-06
0.240063, 1.48762E-06
0.23007, 1.49184E-06
0.220051, 1.4922E-06
0.21004, 1.48973E-06
0.200028, 1.48204E-06
0.19004, 1.4685E-06
0.180061, 1.44727E-06
0.170051, 1.41664E-06
0.160047, 1.37251E-06
0.150049, 1.31567E-06
0.140039, 1.24166E-06
0.13005, 1.14379E-06
0.120052, 1.01875E-06
0.110043, 8.53735E-07
0.100041, 6.42919E-07
0.0900562, 3.81335E-07
0.0800548, 8.21487E-08
0.0700697, -2.33295E-07
0.0600559, -5.31238E-07
0.0500671, -7.75372E-07
0.0400719, -9.43458E-07
0.0300629, -1.02576E-06
0.0200669, -1.03802E-06
0.0100562, -9.98785E-07
8.57078E-05, -9.26505E-07
-0.00993693, -8.39468E-07
-0.019949, -7.48359E-07
-0.029942, -6.61827E-07
-0.0399388, -5.83075E-07
-0.0499293, -5.11544E-07
-0.0599428, -4.50052E-07
-0.0699406, -3.97695E-07
-0.0799512, -3.52656E-07
-0.0899547, -3.15038E-07
-0.0999457, -2.83275E-07
-0.109946, -2.56812E-07
-0.119946, -2.34741E-07
-0.129933, -2.16077E-07
-0.13992, -2.00744E-07
-0.149939, -1.88102E-07
-0.159937, -1.77259E-07
-0.16993, -1.68371E-07
-0.179952, -1.60664E-07
-0.189945, -1.54502E-07
-0.199948, -1.49314E-07
-0.209926, -1.45132E-07
-0.22013, -1.41864E-07
-0.23011, -1.39051E-07
-0.240124, -1.36834E-07
-0.250135, -1.35183E-07
-0.260126, -1.33911E-07
-0.270119, -1.33135E-07
-0.280088, -1.32681E-07
-0.290129, -1.32736E-07
-0.300117, -1.32878E-07
-0.310125, -1.33365E-07
-0.320122, -1.34226E-07
-0.330112, -1.35209E-07
-0.340106, -1.36298E-07
-0.350098, -1.3757E-07
-0.360105, -1.38854E-07
-0.3701, -1.40326E-07
-0.380112, -1.41737E-07
-0.390089, -1.43349E-07
-0.400119, -1.45086E-07
-0.410093, -1.46751E-07
-0.420101, -1.48434E-07
-0.430105, -1.50035E-07
-0.440087, -1.51479E-07
-0.450092, -1.52804E-07
-0.460085, -1.53997E-07
-0.470098, -1.55187E-07
-0.480082, -1.56113E-07
-0.490089, -1.57042E-07
-0.500117, -1.5804E-07
-0.510095, -1.59069E-07
-0.520107, -1.60079E-07
-0.53012, -1.61246E-07
-0.540116, -1.62451E-07
-0.550087, -1.63909E-07
-0.560093, -1.65532E-07
-0.570088, -1.67128E-07
-0.580104, -1.68932E-07
-0.590105, -1.70771E-07
-0.600101, -1.72755E-07
-0.610116, -1.7461E-07
-0.620115, -1.76398E-07
-0.630107, -1.78412E-07
-0.6401, -1.80284E-07
-0.650105, -1.82219E-07
-0.660113, -1.84029E-07
-0.670105, -1.85924E-07
-0.680122, -1.87821E-07
-0.690095, -1.89658E-07
-0.700122, -1.91524E-07
-0.710107, -1.93279E-07
-0.720106, -1.94812E-07
-0.730092, -1.96467E-07
-0.740086, -1.97953E-07
-0.750096, -1.99417E-07
-0.760097, -2.00979E-07
-0.770109, -2.0247E-07
-0.780275, -2.04314E-07
-0.790286, -2.05634E-07
-0.800283, -2.07125E-07
-0.810281, -2.08442E-07
-0.820281, -2.09905E-07
-0.830276, -2.11478E-07
-0.840277, -2.12932E-07
-0.850262, -2.14479E-07
-0.860261, -2.15891E-07
-0.870251, -2.17506E-07
-0.880259, -2.19075E-07
-0.89024, -2.20338E-07
-0.900262, -2.22075E-07
-0.910284, -2.23508E-07
-0.920271, -2.25163E-07
-0.930275, -2.2663E-07
-0.940282, -2.28122E-07
-0.950275, -2.29651E-07
-0.960257, -2.31158E-07
-0.970256, -2.32689E-07
-0.980264, -2.34333E-07
-0.990254, -2.36003E-07
-1.00028, -2.37673E-07
-1.01026, -2.39419E-07
-1.02024, -2.41441E-07
-1.03024, -2.43552E-07
-1.04024, -2.4586E-07
-1.05021, -2.48324E-07
-1.06021, -2.5113E-07
-1.07022, -2.54262E-07
-1.0802, -2.57648E-07
-1.09022, -2.61741E-07
-1.1002, -2.6579E-07
-1.11022, -2.7045E-07
-1.12022, -2.75363E-07
-1.13021, -2.80379E-07
-1.14021, -2.86748E-07
-1.1502, -2.93263E-07
-1.16022, -3.01411E-07
-1.17022, -3.10781E-07
-1.18021, -3.22016E-07
-1.19022, -3.35124E-07
-1.20021, -3.50539E-07
-1.21021, -3.68111E-07
-1.22021, -3.8824E-07
-1.2302, -4.10535E-07
-1.24019, -4.35781E-07
-1.25019, -4.6301E-07
-1.26018, -4.92192E-07
-1.2702, -5.23028E-07
-1.28018, -5.5571E-07
-1.29018, -5.885E-07
-1.30017, -6.21679E-07
-1.31019, -6.53988E-07
-1.32018, -6.85302E-07
-1.33019, -7.14982E-07
-1.3404, -7.44684E-07
-1.35041, -7.71194E-07
-1.36039, -7.9699E-07
-1.37038, -8.23607E-07
-1.38037, -8.50985E-07
-1.39039, -8.80605E-07
-1.40039, -9.12123E-07
-1.41041, -9.44276E-07
-1.42039, -9.77799E-07
-1.4304, -1.02132E-06
-1.44041, -1.08927E-06
-1.45042, -1.1927E-06
-1.46039, -1.34308E-06
-1.47039, -1.54395E-06
-1.48039, -1.79155E-06
-1.49039, -2.07271E-06
-1.5004, -2.36527E-06
-1.51038, -2.63769E-06
-1.5204, -2.86213E-06
-1.53041, -3.00768E-06
-1.5404, -3.07144E-06
-1.55041, -3.06642E-06
-1.56037, -3.01029E-06
-1.57039, -2.92679E-06
-1.58039, -2.8313E-06
-1.5904, -2.7325E-06
-1.60037, -2.63866E-06
-1.61038, -2.55327E-06
-1.62037, -2.47645E-06
-1.63041, -2.41117E-06
-1.64038, -2.35382E-06
-1.65037, -2.30583E-06
-1.66036, -2.26398E-06
-1.67035, -2.22788E-06
-1.68036, -2.19689E-06
-1.69035, -2.16813E-06
-1.70036, -2.14412E-06
-1.71036, -2.12038E-06
-1.72036, -2.09988E-06
-1.73037, -2.08001E-06
-1.74036, -2.06104E-06
-1.75038, -2.04437E-06
-1.76036, -2.0267E-06
-1.77036, -2.01134E-06
-1.78035, -1.99601E-06
-1.79035, -1.98068E-06
-1.80037, -1.96677E-06
-1.81036, -1.95059E-06
-1.82036, -1.937E-06
-1.83037, -1.92261E-06
-1.84032, -1.90875E-06
-1.85033, -1.89744E-06
-1.8603, -1.88493E-06
-1.87031, -1.87551E-06
-1.88029, -1.8653E-06
-1.89031, -1.85694E-06
-1.9005, -1.8507E-06
-1.8903, -1.8042E-06
-1.8803, -1.7756E-06
-1.87031, -1.75261E-06
-1.86031, -1.73525E-06
-1.85031, -1.72091E-06
-1.84031, -1.70804E-06
-1.83034, -1.69841E-06
-1.82036, -1.6896E-06
-1.81036, -1.68273E-06
-1.80036, -1.67757E-06
-1.79035, -1.67242E-06
-1.78035, -1.66948E-06
-1.77035, -1.66589E-06
-1.76036, -1.66274E-06
-1.75038, -1.66053E-06
-1.74035, -1.65685E-06
-1.73037, -1.65438E-06
-1.72036, -1.65012E-06
-1.71036, -1.64656E-06
-1.70036, -1.64219E-06
-1.69033, -1.63638E-06
-1.68037, -1.63121E-06
-1.67035, -1.62337E-06
-1.66035, -1.61535E-06
-1.65037, -1.60577E-06
-1.64038, -1.59421E-06
-1.6304, -1.57962E-06
-1.62038, -1.562E-06
-1.6104, -1.54019E-06
-1.60038, -1.51179E-06
-1.5904, -1.47638E-06
-1.58039, -1.43106E-06
-1.5704, -1.37492E-06
-1.56038, -1.3075E-06
-1.55042, -1.22921E-06
-1.5404, -1.14431E-06
-1.53041, -1.05503E-06
-1.5204, -9.65333E-07
-1.51039, -8.77321E-07
-1.5004, -7.89674E-07
-1.49039, -7.06926E-07
-1.48039, -6.30146E-07
-1.47039, -5.66015E-07
-1.46039, -5.17304E-07
-1.45042, -4.82527E-07
-1.44041, -4.58242E-07
-1.43041, -4.3915E-07
-1.42039, -4.20918E-07
-1.4104, -4.02545E-07
-1.4004, -3.8395E-07
-1.3904, -3.65714E-07
-1.38037, -3.46991E-07
-1.37037, -3.28446E-07
-1.3604, -3.09508E-07
-1.35041, -2.90518E-07
-1.3404, -2.70988E-07
-1.33019, -2.50884E-07
-1.3202, -2.31797E-07
-1.3102, -2.12517E-07
-1.30019, -1.93851E-07
-1.29021, -1.75498E-07
-1.28019, -1.58051E-07
-1.27021, -1.41216E-07
-1.26019, -1.25349E-07
-1.2502, -1.10518E-07
-1.24019, -9.66574E-08
-1.2302, -8.38218E-08
-1.22022, -7.20816E-08
-1.2102, -6.1077E-08
-1.2002, -5.12298E-08
-1.19021, -4.2293E-08
-1.18021, -3.40883E-08
-1.1702, -2.65997E-08
-1.16022, -2.00459E-08
-1.15022, -1.41216E-08
-1.1402, -8.71463E-09
-1.13023, -4.1584E-09
-1.12023, -5.13163E-12
-1.11022, 3.63771E-09
-1.10021, 6.54954E-09
-1.09022, 9.09781E-09
-1.08022, 1.11135E-08
-1.07023, 1.25647E-08
-1.06022, 1.37466E-08
-1.05022, 1.44717E-08
-1.04025, 1.49478E-08
-1.03025, 1.5099E-08
-1.02025, 1.5027E-08
-1.01028, 1.48071E-08
-1.00029, 1.45076E-08
-0.99027, 1.42184E-08
-0.980278, 1.37939E-08
-0.970273, 1.35044E-08
-0.960265, 1.33236E-08
-0.950277, 1.31012E-08
-0.94029, 1.30576E-08
-0.930279, 1.32065E-08
-0.920277, 1.32908E-08
-0.910283, 1.38074E-08
-0.90026, 1.41723E-08
-0.890256, 1.47253E-08
-0.880273, 1.53739E-08
-0.870258, 1.62241E-08
-0.860272, 1.71212E-08
-0.850268, 1.8016E-08
-0.840278, 1.90256E-08
-0.830279, 2.0132E-08
-0.820306, 2.11601E-08
-0.810309, 2.24038E-08
-0.800303, 2.35495E-08
-0.7903, 2.48709E-08
-0.780287, 2.60994E-08
-0.770102, 2.75989E-08
-0.760096, 2.87872E-08
-0.750094, 3.00931E-08
-0.740088, 3.12901E-08
-0.730099, 3.25483E-08
-0.720113, 3.38335E-08
-0.710111, 3.50656E-08
-0.700121, 3.62822E-08
-0.690092, 3.74743E-08
-0.68011, 3.86853E-08
-0.670098, 3.9866E-08
-0.66012, 4.10241E-08
-0.650107, 4.22612E-08
-0.640118, 4.33202E-08
-0.630119, 4.44825E-08
-0.620136, 4.56474E-08
-0.610133, 4.67679E-08
-0.60012, 4.78815E-08
-0.590108, 4.91054E-08
-0.5801, 5.00968E-08
-0.570096, 5.11431E-08
-0.560087, 5.22948E-08
-0.550085, 5.33286E-08
-0.540107, 5.4444E-08
-0.530113, 5.54306E-08
-0.52012, 5.65887E-08
-0.510103, 5.76321E-08
-0.500124, 5.87065E-08
-0.4901, 5.98317E-08
-0.480066, 6.11228E-08
-0.470092, 6.21271E-08
-0.46009, 6.3207E-08
-0.450114, 6.4313E-08
-0.440103, 6.54505E-08
-0.430114, 6.65547E-08
-0.420106, 6.76943E-08
-0.410107, 6.87203E-08
-0.40013, 6.97804E-08
-0.390124, 7.07251E-08
-0.380129, 7.17297E-08
-0.370107, 7.27407E-08
-0.360123, 7.37097E-08
-0.350133, 7.4626E-08
-0.340115, 7.56853E-08
-0.330119, 7.67162E-08
-0.320129, 7.7876E-08
-0.31013, 7.92213E-08
-0.300136, 8.06853E-08
-0.290128, 8.25409E-08
-0.280116, 8.46371E-08
-0.270123, 8.70069E-08
-0.260142, 8.9534E-08
-0.250133, 9.16856E-08
-0.240114, 9.4236E-08
-0.230105, 9.68188E-08
-0.220124, 9.94955E-08
-0.209916, 1.029E-07
-0.199945, 1.06165E-07
-0.189936, 1.09743E-07
-0.179946, 1.13666E-07
-0.169933, 1.17889E-07
-0.159933, 1.22754E-07
-0.149935, 1.27801E-07
-0.13994, 1.32442E-07
-0.129946, 1.35889E-07
-0.119951, 1.3854E-07
-0.109962, 1.43181E-07
-0.0999428, 1.51271E-07
-0.0899353, 1.63809E-07
-0.0799448, 1.81717E-07
-0.0699374, 2.06404E-07
-0.0599501, 2.39886E-07
-0.0499348, 2.85231E-07
-0.0399538, 3.46077E-07
-0.0299418, 4.2779E-07
-0.019971, 5.35696E-07
-0.00995084, 6.76006E-07
6.98973E-05, 8.53648E-07
0.0100411, 1.07042E-06
0.0200691, 1.32191E-06
0.0300721, 1.59445E-06
0.0400597, 1.87128E-06
0.0500578, 2.14781E-06
0.0600478, 2.4096E-06
0.0700721, 2.63066E-06
0.0800605, 2.78131E-06
0.0900536, 2.85082E-06
0.10003, 2.85434E-06
0.110047, 2.81009E-06
0.120037, 2.73606E-06
0.130052, 2.64413E-06
0.140037, 2.54442E-06
0.150043, 2.44762E-06
0.160053, 2.35385E-06
0.170044, 2.26846E-06
0.180049, 2.19158E-06
0.190023, 2.12188E-06
0.200039, 2.06156E-06
0.210036, 2.00622E-06
0.220038, 1.9587E-06
0.230064, 1.91544E-06
0.24005, 1.87702E-06
0.250051, 1.84314E-06
0.260048, 1.81216E-06
0.270049, 1.78538E-06
0.280035, 1.761E-06
0.290037, 1.73978E-06
0.30003, 1.72149E-06
0.310049, 1.70404E-06
0.320058, 1.69105E-06
0.330058, 1.67858E-06
0.340062, 1.66849E-06
0.350263, 1.6612E-06
0.360259, 1.65313E-06
0.370245, 1.64827E-06
0.380242, 1.64361E-06
0.390244, 1.6405E-06
0.400252, 1.63841E-06
0.410256, 1.63737E-06
0.420231, 1.63702E-06
0.430249, 1.636E-06
0.440239, 1.63545E-06
0.450244, 1.63491E-06
0.460239, 1.63375E-06
0.470221, 1.63334E-06
0.480236, 1.63211E-06
0.490241, 1.63087E-06
0.500226, 1.62959E-06
0.510216, 1.62744E-06
0.520214, 1.62584E-06
0.530238, 1.62359E-06
0.540245, 1.62131E-06
0.550243, 1.61973E-06
0.560224, 1.61788E-06
0.570233, 1.6172E-06
0.580224, 1.6168E-06
0.590234, 1.61749E-06
0.600212, 1.61764E-06
0.610217, 1.61873E-06
0.620161, 1.61835E-06
0.630156, 1.61822E-06
0.640185, 1.61901E-06
0.650172, 1.61829E-06
0.660178, 1.61973E-06
0.67016, 1.61989E-06
0.680175, 1.61939E-06
0.690152, 1.61909E-06
0.70015, 1.617E-06
0.710151, 1.61601E-06
0.720182, 1.61328E-06
0.730179, 1.61245E-06
0.740177, 1.61133E-06
0.750188, 1.61125E-06
0.760186, 1.61203E-06
0.770197, 1.61247E-06
0.780165, 1.61459E-06
0.790172, 1.61704E-06
0.800165, 1.62011E-06
0.810158, 1.62417E-06
0.820168, 1.62931E-06
0.830136, 1.6351E-06
0.840163, 1.64208E-06
0.850136, 1.65132E-06
0.860158, 1.66234E-06
0.870142, 1.67559E-06
0.880134, 1.6941E-06
0.890149, 1.71554E-06
0.90014, 1.74464E-06
0.91035, 1.78456E-06
0.920334, 1.83614E-06
0.930328, 1.91477E-06
0.940333, 2.02077E-06
0.950357, 2.15968E-06
0.960349, 2.33724E-06
0.970331, 2.55875E-06
0.980338, 2.81399E-06
0.990329, 3.08348E-06
1.00035, 3.33413E-06
1.01031, 3.53887E-06
1.02033, 3.67663E-06
1.03032, 3.74034E-06
1.04034, 3.7384E-06
1.05035, 3.69266E-06
1.06034, 3.61847E-06
1.07035, 3.53022E-06
1.08033, 3.43986E-06
1.09034, 3.35423E-06
1.10033, 3.27403E-06
1.11033, 3.20304E-06
1.12033, 3.13869E-06
1.13035, 3.08284E-06
1.14035, 3.03337E-06
1.15035, 2.99198E-06
1.16035, 2.95723E-06
1.17035, 2.92898E-06
1.18036, 2.90561E-06
1.19034, 2.88938E-06
1.20034, 2.87781E-06
1.21033, 2.87055E-06
1.22034, 2.86999E-06
1.23034, 2.87161E-06
1.2403, 2.88109E-06
1.25033, 2.89444E-06
1.26032, 2.91332E-06
1.27033, 2.93881E-06
1.28034, 2.96702E-06
1.29033, 3.00179E-06
1.30033, 3.04305E-06
1.3103, 3.08763E-06
1.32032, 3.1433E-06
1.3303, 3.20672E-06
1.3403, 3.28169E-06
1.35032, 3.3665E-06
1.36032, 3.46755E-06
1.37033, 3.57902E-06
1.38033, 3.70305E-06
1.39032, 3.84063E-06
1.40033, 3.98431E-06
1.41034, 4.13419E-06
1.4203, 4.28419E-06
1.43031, 4.42997E-06
1.44029, 4.56568E-06
1.45028, 4.69522E-06
1.46031, 4.81767E-06
1.47048, 4.94049E-06
1.48049, 5.0564E-06
1.49048, 5.17161E-06
1.50049, 5.28781E-06
##END=$$ End of the data block
