
##TITLE=PH-771
##JCAMP-DX=5.00
##DATA TYPE=INFRAREDPEAKTABLE
##DATA CLASS=PEAKTABLE
##THRESHOLD=0.93
##MAXX=3997.453
##MAXY=1.0055419192587316
##MINX=373.96442
##MINY=0.2787140606224312
##NPOINTS=108
##PEAKTABLE= (XY..XY)
3987.5372767552776, 0.9265614142758284
3974.788489726349, 0.9255346046416701
3959.2066389132133, 0.9264007201956916
3952.1239794526973, 0.9273074857059264
3943.624788100078, 0.9266574965864585
3935.125596747459, 0.9265525925975846
3915.2941502580143, 0.9278341520713718
3901.128831336982, 0.9255525458000348
3892.6296399843627, 0.9260904780666769
3871.381661602815, 0.9274616225258654
3858.6328745738856, 0.9288899889601845
3847.30061943706, 0.9282599076152502
3835.9683643002345, 0.9285789714225088
3830.3022367318217, 0.9277730567988721
3824.636109163409, 0.9283906800986177
3816.13691781079, 0.9287142146799671
3806.2211945660674, 0.9290425169008005
3787.8062799687254, 0.9289157375847401
3779.3070886161063, 0.9305267324248676
3769.391365371384, 0.9300391061998284
3745.310323205629, 0.9296753992690497
3738.227663745113, 0.9321051825768498
3725.4788767161845, 0.9303615675706399
3711.3135577951525, 0.9324514849545329
3702.8143664425334, 0.9333579526628907
3694.315175089914, 0.9329070431617268
3682.982919953088, 0.9339585890813555
3663.1514734636435, 0.9343229515508572
3648.9861545426115, 0.9322948439766721
3639.0704312978887, 0.9338566050492506
3629.1547080531664, 0.9340053186909826
3622.0720485926504, 0.9346748578481381
3605.073665887412, 0.9349773515094469
3578.159559937451, 0.921469507880087
3433.6733069429242, 0.9343406548423138
3377.012031258796, 0.43533751312376373
3309.018500437842, 0.9184048755878687
3293.4366496247067, 0.9231577504668489
3277.8547988115715, 0.9242281300139895
3259.43988421423, 0.9299175131315509
3233.942310156372, 0.9330526579782668
3214.1108636669273, 0.9326538432029358
3202.7786085301013, 0.9336465582681108
3194.279417177482, 0.9337763174759093
3190.0298215011726, 0.9339193691360422
3165.9487793354183, 0.9330130802961075
3153.1999923064895, 0.9319187389356736
3146.1173328459736, 0.9319949734067391
3114.953631219703, 0.9013121116926197
3073.87420634871, 0.8901358235758378
3063.9584831039874, 0.8930694445812967
3049.7931641829555, 0.9148077351436991
3012.963334988272, 0.9309672104319807
3004.464143635653, 0.9292331325777067
2984.6326971462076, 0.9017342908045223
2954.8855274120406, 0.9308722603303736
2940.7202084910086, 0.9231502998010201
2927.97142146208, 0.9251458036885749
2903.890379296325, 0.9181522712328317
2851.4786992885065, 0.9347355354488228
2831.647252799062, 0.9313212622138536
1790.4963121032056, 0.348168611207447
1755.0830148006253, 0.8072203987109648
1680.0068245191555, 0.9226182093208838
1644.5935272165752, 0.6995021689884414
1620.512485050821, 0.8958570949063375
1456.194785566849, 0.7801237093416954
1422.198020156372, 0.8656768188109162
1372.6194039327597, 0.7411081188605517
1359.870616903831, 0.6527652135816983
1340.0391704143858, 0.8375399102946675
1324.4573196012507, 0.6847252239304829
1297.54321365129, 0.9108236423656332
1279.128299053948, 0.7554212206383416
1256.463788780297, 0.6812229146544664
1226.7166190461294, 0.8152356734865375
1201.219044988272, 0.577565669592765
1182.8041303909304, 0.4189329141137585
1154.473492548866, 0.32047998816450246
1147.39083308835, 0.3454696234311759
1092.146089296325, 0.33661916797392005
1058.149323885848, 0.6332213866552167
1046.8170687490224, 0.47698035765168845
1018.4864309069585, 0.31625977127489585
1005.7376438780293, 0.41913464585443894
970.3243465754495, 0.7179056994170389
933.494517380766, 0.7066608063634432
927.8283898123532, 0.7047941673415719
869.7505822361218, 0.3499265900035617
848.5026038545734, 0.7495478381025569
838.586880609851, 0.7510747301339752
827.2546254730255, 0.6590158933024733
810.2562427677872, 0.6683357350880428
760.6776265441749, 0.7226877794826126
745.0957757310398, 0.2787140606224312
718.1816697810787, 0.7248316992100224
704.0163508600467, 0.32710423973735364
677.1022449100856, 0.5008289809467859
658.687330312744, 0.7085942017029294
621.8575011180606, 0.6753509031310966
582.1946081391711, 0.5814616673312986
552.4474384050036, 0.8764649025148409
522.7002686708365, 0.45339375693010975
511.3680135340105, 0.3906412413333646
458.9563335261919, 0.7388383141591964
423.54303622361203, 0.49832004227466736
416.46037676309606, 0.47783976704457365
392.3793345973413, 0.5906721942888722
##END=

##END=

