##TITLE=Spectrum
##JCAMP-DX=5.00 $$ chemotion-converter-app (0.1.0)
##DATA TYPE=UV/VIS SPECTRUM
##DATA CLASS=XYPOINTS
##ORIGIN=
##OWNER=
##FIRSTX=250.186126708984
##LASTX=800.563354492188
##MINX=250.186126708984
##MAXX=800.563354492188
##MINY=13.1235126174812
##MAXY=6167.85230786118
##NPOINTS=1152
##FIRSTY=484.340868753532
##XUNITS=NANOMETERS
##YUNITS=ABSORBANCE
##XYPOINTS=(XY..XY)
250.186126708984, 484.340868753532
250.715393066406, 510.631286988998
251.244567871094, 461.235211618633
251.773590087891, 453.495661000003
252.302612304688, 453.445543727135
252.831558227539, 560.819528658746
253.360412597656, 425.638899051721
253.889144897461, 217.635083845551
254.417846679688, 336.037864358868
254.946472167969, 307.475465690021
255.475021362305, 299.384714090926
256.00341796875, 288.251364093483
256.531829833984, 278.684911293234
257.060150146484, 242.321388587729
257.58837890625, 228.189702165885
258.116546630859, 271.423681520968
258.644561767578, 299.804270833863
259.172546386719, 267.357348054115
259.700469970703, 202.935871973576
260.228332519531, 224.692137065363
260.756011962891, 242.413477651962
261.283721923828, 196.508357343271
261.811309814453, 258.347973709343
262.3388671875, 167.47920460117
262.866241455078, 226.044934046441
263.393615722656, 191.411100657265
263.9208984375, 171.727178824556
264.448120117188, 219.392454223002
264.975189208984, 158.074656861742
265.502258300781, 172.806694010028
266.029235839844, 162.743523337341
266.55615234375, 135.051797649183
267.082885742188, 159.751392614763
267.609649658203, 126.868037962263
268.136322021484, 88.9321481614609
268.662902832031, 149.636304879544
269.189331054688, 96.8031924546665
269.715759277344, 109.285320589737
270.242126464844, 124.116811320738
270.768371582031, 138.310303373962
271.294586181641, 148.45954243717
271.820617675781, 85.7035793326044
272.346649169922, 96.6861894330471
272.872619628906, 91.4465923704262
273.398468017578, 111.817019654823
273.924224853516, 103.753427435149
274.449920654297, 76.8476024328349
274.975555419922, 81.6558090695458
275.501129150391, 90.4252701551813
276.026550292969, 116.012319960809
276.551940917969, 85.3207597741113
277.077239990234, 110.0270124417
277.602478027344, 104.637160625631
278.127593994141, 117.080920607293
278.652679443359, 83.5647546257037
279.177673339844, 73.8717368292967
279.702606201172, 104.044815424579
280.227386474609, 75.0250766893837
280.752136230469, 81.6301582915891
281.276824951172, 49.4954223716973
281.801422119141, 81.249453422375
282.325897216797, 51.1117803232527
282.850341796875, 68.0458004963673
283.374694824219, 59.0657643118051
283.898986816406, 63.4326600012017
284.423126220703, 65.8210618536627
284.947235107422, 63.8148283045749
285.471282958984, 61.9623577149999
285.995269775391, 71.6410264286796
286.519134521484, 54.9473694060303
287.042877197266, 47.5310334936766
287.566619873047, 56.0558122526154
288.090270996094, 50.1039155219545
288.613830566406, 52.0256065111431
289.137237548828, 45.0168486948878
289.66064453125, 38.4584672338721
290.183990478516, 49.9242197655812
290.707214355469, 40.5844505863954
291.230316162109, 42.6498214501581
291.75341796875, 47.6551320559836
292.276428222656, 51.3791546445767
292.799346923828, 55.7271818014741
293.322113037109, 43.5466973349952
293.844879150391, 32.7949647781679
294.367584228516, 45.0464740395925
294.890167236328, 33.8619059316031
295.412628173828, 45.652853297613
295.935089111328, 43.9784612851668
296.457427978516, 32.5648411171444
296.979736328125, 34.8062759610844
297.501861572266, 34.2048955206455
298.023986816406, 35.109964853646
298.546020507813, 36.6719561109332
299.067993164063, 34.5340319040001
299.589874267578, 35.1404509239807
300.111602783203, 28.8589602988058
300.633331298828, 35.096553953668
301.154968261719, 36.4423677216715
301.676513671875, 29.893553570487
302.197937011719, 26.1809988121231
302.719329833984, 28.3317426761671
303.240631103516, 37.0942792134874
303.761871337891, 25.9760534781516
304.282958984375, 31.4242515557762
304.804046630859, 25.1212011132707
305.325012207031, 28.768051065527
305.845947265625, 25.4885843295737
306.36669921875, 24.5044675754004
306.887451171875, 24.6238233128713
307.408111572266, 34.981429778239
307.9287109375, 33.3490602124973
308.449157714844, 25.5582786311203
308.969573974609, 34.9530355247025
309.489898681641, 27.4393640410413
310.010162353516, 22.6049596762052
310.530303955078, 28.707145817667
311.050384521484, 30.7162841973252
311.570404052734, 24.483954424864
312.09033203125, 23.1691637547737
312.610198974609, 29.8728027817604
313.129913330078, 20.7307905307557
313.649597167969, 25.0029230202188
314.169219970703, 23.7624813908409
314.688751220703, 20.7626427869796
315.208129882813, 27.0062878613904
315.727508544922, 24.9419340983486
316.246795654297, 25.9031809329753
316.765991210938, 24.7462975202103
317.285064697266, 16.5719909214561
317.804107666016, 19.6434943087519
318.323059082031, 22.6464402887995
318.841918945313, 25.1808865162251
319.360656738281, 16.1991137533263
319.87939453125, 17.9653385858848
320.398010253906, 22.4940981532068
320.916564941406, 21.982708465162
321.434967041016, 24.8641427057181
321.953369140625, 21.2353726627276
322.4716796875, 19.5750888073083
322.989898681641, 16.8183467197804
323.507965087891, 21.113743515476
324.026031494141, 20.5566205857992
324.544006347656, 22.1919409514561
325.061889648438, 19.8282417495735
325.579711914063, 21.072277252191
326.097381591797, 19.8124943233043
326.615051269531, 19.2719842015817
327.132598876953, 24.3044786959657
327.650085449219, 19.6420998753695
328.167449951172, 18.4599932096816
328.684753417969, 25.7500212906949
329.201995849609, 15.7826475408125
329.719146728516, 22.6316287290656
330.236175537109, 22.7636948611761
330.753143310547, 22.8960245675152
331.270080566406, 23.3719960321653
331.786895751953, 20.3146061282222
332.303588867188, 13.1235126174812
332.820251464844, 23.1825135983959
333.336822509766, 20.1756403095736
333.853332519531, 24.1027662276573
334.369689941406, 20.216549538995
334.886016845703, 22.5652346197428
335.402252197266, 19.6604786158022
335.918426513672, 23.2009274412998
336.434448242188, 22.1299802001929
336.950469970703, 20.7680896353231
337.466369628906, 21.2493474373371
337.982208251953, 20.2392286157476
338.497955322266, 17.4444730077431
339.013580322266, 21.146161706865
339.529174804688, 19.8502428325013
340.044677734375, 18.2791061040736
340.560089111328, 16.4434736873348
341.075378417969, 21.5130921202927
341.590637207031, 16.2635458600524
342.105804443359, 14.1894209278765
342.620910644531, 20.5983400357793
343.135864257813, 19.0792850023454
343.650787353516, 17.3019328459666
344.165618896484, 19.1512545102688
344.680389404297, 18.4957594164401
345.195007324219, 18.6755726086832
345.709594726563, 19.9553356473269
346.224090576172, 21.4942370167313
346.738525390625, 22.4759567548317
347.252807617188, 16.4398144651489
347.76708984375, 19.5793200149025
348.28125, 22.4114028601832
348.795349121094, 23.0812749484359
349.309295654297, 22.1694274337045
349.8232421875, 19.171311321176
350.337066650391, 19.3324030046341
350.850830078125, 21.0469969517294
351.364501953125, 20.6719964217132
351.878051757813, 18.2433283962976
352.391571044922, 23.758235651221
352.904998779297, 19.5558341783217
353.418334960938, 18.9410748949948
353.931518554688, 20.844573926258
354.444702148438, 17.4676580506487
354.957794189453, 17.1055851200868
355.470825195313, 22.1968436407747
355.983673095703, 18.8949111237803
356.496520996094, 21.4533583341011
357.00927734375, 20.3434598786696
357.521942138672, 20.4845221209952
358.034484863281, 19.4233875700343
358.546997070313, 21.4610145392185
359.059417724609, 21.1041857680467
359.571746826172, 21.463611467445
360.083953857422, 18.7697504811353
360.596130371094, 20.7796875357972
361.108215332031, 20.2129749925834
361.620208740234, 18.0312359750894
362.132080078125, 18.1724474596545
362.643920898438, 19.9197282346135
363.155670166016, 17.0934162354628
363.667327880859, 19.7406387372307
364.178863525391, 21.0083651123122
364.690338134766, 17.7663193313507
365.201751708984, 20.1623348873531
365.713104248047, 18.9872808573425
366.224334716797, 20.9133674259216
366.735443115234, 22.3477265125394
367.246520996094, 19.1648954002361
367.757507324219, 19.5412684826916
368.268432617188, 19.911501331032
368.779205322266, 23.1099552720006
369.289947509766, 19.9716238861268
369.800598144531, 18.1470258905603
370.311157226563, 17.2165951140623
370.821594238281, 18.6631330628428
371.332000732422, 20.7582663001141
371.842315673828, 20.0764773128174
372.3525390625, 23.0214116881663
372.862640380859, 19.5725526937412
373.372711181641, 20.1632994554657
373.882690429688, 23.5003183215721
374.392578125, 22.1524435637429
374.902313232422, 18.9157238369708
375.412048339844, 23.761977778173
375.921691894531, 19.8221465427555
376.431243896484, 19.7634289068359
376.940643310547, 18.4951694507541
377.450042724609, 21.2207100371745
377.959350585938, 20.2445296774963
378.468566894531, 18.6578757128647
378.977691650391, 19.2816894822579
379.486694335938, 18.9590630972639
379.995635986328, 19.0338839964033
380.504516601563, 19.8470139988157
381.013305664063, 16.3300792561165
381.52197265625, 22.8304300864892
382.030578613281, 15.875154186391
382.539123535156, 21.0774649140925
383.047576904297, 19.6909381825986
383.555877685547, 16.4955718817368
384.064147949219, 23.0607397842564
384.572357177734, 18.567507750923
385.080474853516, 18.0838745326335
385.588439941406, 19.1188258626957
386.096374511719, 18.0984456258874
386.604217529297, 20.2796265689895
387.111999511719, 20.2023419044379
387.61962890625, 17.1121954612158
388.127227783203, 18.4743108377422
388.634735107422, 19.9012316241588
389.142150878906, 20.0067906103696
389.649444580078, 18.7448203106963
390.156677246094, 16.2964228258653
390.663848876953, 18.2587497123954
391.170959472656, 18.9345186217671
391.677947998047, 19.0082347574124
392.184783935547, 20.6512625587211
392.691619873047, 17.1584782340812
393.198364257813, 17.073684936554
393.705017089844, 14.6343194492877
394.211547851563, 21.3993981174317
394.718017578125, 19.7687986574277
395.224426269531, 18.3286561547316
395.730743408203, 16.5600681286853
396.236907958984, 17.8824902038261
396.743041992188, 17.2943535445964
397.249084472656, 16.0413769121514
397.755065917969, 19.2344594450952
398.260894775391, 18.9883981895701
398.766693115234, 18.2126928152117
399.272399902344, 15.6025019326741
399.778015136719, 14.356194316106
400.283508300781, 17.8187031698469
400.788940429688, 19.4766254450116
401.294311523438, 14.1121893037581
401.799591064453, 18.5151257942312
402.304748535156, 16.6424955911363
402.809844970703, 18.079184517229
403.314880371094, 19.505531935443
403.819793701172, 18.4702902054531
404.324645996094, 16.3017862664094
404.829345703125, 15.2838545117927
405.334045410156, 16.3870700291073
405.838623046875, 18.7852721621603
406.343109130859, 17.2767958058373
406.847473144531, 17.6999595209803
407.351806640625, 16.5129541294334
407.856048583984, 15.0134291646454
408.360198974609, 13.3666091739368
408.864227294922, 16.4881593590909
409.368194580078, 16.8931129178985
409.872100830078, 16.5051440764424
410.375915527344, 18.4792804749888
410.879577636719, 18.7260506183392
411.383209228516, 16.4955666410174
411.886779785156, 17.5404240076622
412.390228271484, 16.2484523896082
412.8935546875, 17.8924183777792
413.396850585938, 18.6015875979899
413.900024414063, 17.7731168705128
414.403167724609, 17.8575382391119
414.906127929688, 18.3947589638465
415.409057617188, 20.2944747294849
415.911926269531, 18.5591898652181
416.414703369141, 21.6821785647339
416.917358398438, 20.5919287503785
417.419891357422, 17.7819000481853
417.922424316406, 16.9208624677436
418.424835205078, 17.2942006430641
418.927154541016, 17.3777360379335
419.429351806641, 18.788578825691
419.931518554688, 17.264939239711
420.43359375, 16.6587000148187
420.935577392578, 19.416729630447
421.437408447266, 17.3147813690149
421.939208984375, 16.3807985966591
422.44091796875, 17.3516909364551
422.942565917969, 17.4549842499319
423.444061279297, 17.9956355470257
423.945526123047, 15.9485487688665
424.446868896484, 15.7709630459888
424.948181152344, 18.0257208803068
425.449310302734, 18.3870243470849
425.950408935547, 16.1861853795104
426.451446533203, 16.2935800473786
426.952362060547, 16.9692086556747
427.453155517578, 19.0341797399007
427.953918457031, 19.678787962706
428.45458984375, 18.3568949423807
428.955169677734, 18.858820911704
429.455657958984, 17.2873593084786
429.956024169922, 18.08930989779
430.456329345703, 18.0701412639363
430.956573486328, 18.7467803720351
431.456695556641, 19.1395569306669
431.956695556641, 19.6693298593251
432.456665039063, 19.7859690346497
432.95654296875, 19.3497701905753
433.456359863281, 22.5076398377958
433.955993652344, 19.8657845974639
434.455596923828, 21.2517812688489
434.955139160156, 20.8465462527704
435.45458984375, 20.1161597924697
435.953857421875, 24.0580404204628
436.453125, 24.5445008423942
436.952301025391, 24.2066962738903
437.451385498047, 24.9751846686829
437.950347900391, 23.9711612675009
438.449249267578, 23.138542650142
438.948059082031, 26.1194741463477
439.446807861328, 26.0432971508995
439.945373535156, 27.0415216378645
440.443939208984, 30.2309224651614
440.942413330078, 27.2163334567198
441.440795898438, 29.6865884310365
441.939086914063, 28.2526993040308
442.437225341797, 30.4508303444708
442.935333251953, 31.5744598725288
443.433380126953, 32.4499377328797
443.931304931641, 34.2551763762977
444.429107666016, 34.3405559524975
444.926849365234, 32.9705639460444
445.424530029297, 34.1749683218676
445.922119140625, 34.699745571337
446.419555664063, 37.5105023157556
446.916961669922, 40.0600397658483
447.414276123047, 38.6915297646837
447.911499023438, 42.1586440204676
448.408599853516, 38.6375789853848
448.905639648438, 44.0682055434157
449.402587890625, 44.2386002363453
449.899475097656, 44.0383225861413
450.396209716797, 44.8917196442334
450.892883300781, 48.8415844863296
451.389495849609, 47.365980642135
451.885955810547, 50.6473214138806
452.382446289063, 54.5821168636063
452.878723144531, 56.8478444578332
453.374969482422, 52.6868348081569
453.871124267578, 62.1040245750496
454.367156982422, 65.5835903678678
454.863189697266, 65.2110091293023
455.359008789063, 69.9067266540481
455.854827880859, 75.4048523797598
456.350524902344, 77.7310328238477
456.846099853516, 78.6045657849357
457.341644287109, 78.9778956987948
457.837097167969, 90.1296661264489
458.332366943359, 89.6287555694539
458.827697753906, 104.568386491017
459.322814941406, 102.901347220856
459.817901611328, 112.722615053351
460.312927246094, 118.946389760447
460.807769775391, 126.764983533609
461.302581787109, 133.165443607458
461.797302246094, 146.367427667419
462.291900634766, 151.409559871108
462.786499023438, 162.926748253546
463.280914306641, 177.177307805659
463.775268554688, 192.902450827857
464.269561767578, 202.496229111625
464.763702392578, 216.156810633635
465.257781982422, 227.627684590202
465.751800537109, 252.095231894021
466.245666503906, 264.588941950699
466.739562988281, 285.969166269842
467.233245849609, 306.680893194875
467.726898193359, 329.706337574105
468.220458984375, 359.672870087129
468.7138671875, 390.451881129986
469.207305908203, 415.059409190823
469.700561523438, 441.108150702466
470.193756103516, 488.538293301105
470.686859130859, 512.745923210081
471.179840087891, 551.095981650606
471.672760009766, 608.330504930647
472.165618896484, 634.522113506939
472.658294677734, 695.266970590388
473.151031494141, 743.614424539011
473.643524169922, 792.984899419406
474.136016845703, 857.637597067547
474.62841796875, 920.797968139378
475.120635986328, 977.648927925277
475.612854003906, 1048.44092967644
476.10498046875, 1135.55604480455
476.596954345703, 1202.71974747757
477.088928222656, 1284.8846637846
477.580718994141, 1373.5252277248
478.072479248047, 1454.45659737833
478.564147949219, 1549.27172033894
479.0556640625, 1649.43871286121
479.547149658203, 1745.826979012
480.038543701172, 1842.90364325431
480.529846191406, 1958.1838540016
481.021057128906, 2091.10395815378
481.512145996094, 2209.28585242723
482.003173828125, 2311.95800543448
482.494110107422, 2437.17133376717
482.984893798828, 2586.69736898182
483.475708007813, 2712.32717597512
483.966339111328, 2838.76609440299
484.456909179688, 2961.62113462614
484.947387695313, 3102.8241517224
485.437744140625, 3232.02216749187
485.928039550781, 3377.56275530912
486.418243408203, 3525.04459033388
486.908325195313, 3654.92238971674
487.398406982422, 3788.42447437976
487.888275146484, 3911.80812430965
488.378143310547, 4045.49146727314
488.867889404297, 4180.66477350326
489.357513427734, 4307.94742725388
489.847076416016, 4452.76491610013
490.336578369141, 4542.3015624723
490.825897216797, 4666.22849977663
491.315277099609, 4782.46817436421
491.804412841797, 4890.27778852449
492.293548583984, 5005.75720056958
492.782562255859, 5087.23018831797
493.271453857422, 5188.42781479912
493.760345458984, 5284.49857392363
494.249053955078, 5362.97673196801
494.737701416016, 5450.77635828435
495.226287841797, 5510.64772715234
495.714691162109, 5593.12378409417
496.203094482422, 5655.48879941548
496.691375732422, 5690.58712830801
497.179534912109, 5782.75955368332
497.667694091797, 5822.47097688279
498.155670166016, 5868.35562728118
498.643585205078, 5910.64898623739
499.131439208984, 5927.25462801241
499.619110107422, 5945.89117390157
500.106781005859, 6010.79589399088
500.594329833984, 6037.18155603868
501.081756591797, 6051.41342522647
501.569183349609, 6076.40501580428
502.056396484375, 6087.09830556564
502.543609619141, 6106.39518437677
503.030700683594, 6112.46126012253
503.517669677734, 6117.97803025836
504.004577636719, 6149.42457731765
504.491394042969, 6167.85230786118
504.978149414063, 6135.74297446131
505.464782714844, 6123.59913193926
505.951263427734, 6103.20422697492
506.437744140625, 6118.8955610957
506.924102783203, 6128.06633986571
507.410308837891, 6127.22337852131
507.896545410156, 6114.6659552285
508.382568359375, 6073.42506143044
508.868591308594, 6088.75487456639
509.3544921875, 6065.39495608371
509.840240478516, 6063.50827616574
510.325958251953, 6027.16408012618
510.811584472656, 6046.04938067485
511.297058105469, 6012.90849264622
511.782562255859, 5999.02348892712
512.267883300781, 5988.28593766189
512.753112792969, 5973.56646116504
513.23828125, 5947.908007298
513.723266601563, 5909.29182077948
514.208251953125, 5881.98763353747
514.693176269531, 5874.8787503373
515.177917480469, 5845.53733473882
515.662658691406, 5806.35468040202
516.147216796875, 5816.35194763331
516.631713867188, 5786.74196712016
517.116149902344, 5781.03462549545
517.600402832031, 5798.71263018877
518.084716796875, 5744.38640353814
518.568786621094, 5719.47522686027
519.052856445313, 5736.71275289998
519.536804199219, 5667.17541101657
520.020629882813, 5688.85992019363
520.50439453125, 5611.33095800523
520.988098144531, 5590.01860521222
521.471618652344, 5585.02675617052
521.955139160156, 5594.50872635019
522.4384765625, 5531.14561545178
522.921813964844, 5514.18538512149
523.405029296875, 5494.96439804103
523.888061523438, 5498.53184489613
524.37109375, 5450.04572542616
524.854064941406, 5423.85071583501
525.336791992188, 5425.74407143036
525.819641113281, 5407.27873602695
526.30224609375, 5389.61731517239
526.784790039063, 5338.24163182998
527.267272949219, 5321.04243814581
527.749572753906, 5331.30661715142
528.231872558594, 5316.52333070243
528.714050292969, 5251.83762252161
529.196044921875, 5240.51260964903
529.678161621094, 5179.15540142649
530.159973144531, 5198.27916293287
530.641784667969, 5159.97720545045
531.12353515625, 5141.25028037363
531.605102539063, 5129.06643463914
532.086669921875, 5090.58782887905
532.568054199219, 5039.38673620268
533.049377441406, 4985.41105247406
533.530639648438, 4964.14172213106
534.01171875, 5008.51951353707
534.492797851563, 4936.56129701371
534.973754882813, 4885.48694151983
535.45458984375, 4867.50264624341
535.935424804688, 4796.52089750963
536.416076660156, 4783.32605097446
536.896667480469, 4774.94789317037
537.377197265625, 4738.93631661847
537.857543945313, 4689.03988129167
538.337829589844, 4642.70629970577
538.818054199219, 4633.35277172757
539.298095703125, 4557.17632839146
539.778198242188, 4549.99243157288
540.258056640625, 4492.55556862972
540.737915039063, 4459.82307650799
541.217651367188, 4421.16621451117
541.697265625, 4377.31091385144
542.176879882813, 4341.44735145842
542.656311035156, 4308.56888297329
543.135681152344, 4251.83309145918
543.614929199219, 4220.06118914916
544.094055175781, 4166.56465570262
544.573120117188, 4138.45461084701
545.052124023438, 4106.07513435331
545.530944824219, 4052.05864237714
546.009826660156, 4015.76700513732
546.488464355469, 3978.55803998623
546.967102050781, 3940.13454487134
547.445617675781, 3920.0666191465
547.924011230469, 3851.7670545868
548.40234375, 3810.58236217807
548.880554199219, 3792.42885014049
549.358642578125, 3761.56116798332
549.836730957031, 3700.89726591111
550.314636230469, 3687.99653947432
550.79248046875, 3635.02920385185
551.270263671875, 3603.00488736748
551.747863769531, 3544.93904262976
552.225463867188, 3524.3058698688
552.702941894531, 3492.98807901579
553.180236816406, 3471.8822316992
553.657592773438, 3425.52109255817
554.134704589844, 3384.9294949473
554.61181640625, 3361.88499918815
555.088806152344, 3331.41908822783
555.565673828125, 3298.91340685037
556.042541503906, 3240.10084194356
556.519226074219, 3236.32657003769
556.995849609375, 3198.15668221198
557.472351074219, 3172.03972952709
557.94873046875, 3113.40524255446
558.425048828125, 3097.61252614586
558.901306152344, 3057.91736421785
559.377380371094, 3051.5647234616
559.853515625, 3002.66039212409
560.329406738281, 2968.073945756
560.805297851563, 2934.43952396549
561.281005859375, 2904.03137823404
561.756652832031, 2881.50061563816
562.232238769531, 2846.1995867683
562.707702636719, 2820.52374460949
563.183044433594, 2804.24722319279
563.658386230469, 2758.57865640213
564.133483886719, 2752.22107975364
564.608581542969, 2708.59547818303
565.083618164063, 2699.78989501285
565.558471679688, 2663.96188900024
566.033264160156, 2646.00895722491
566.507995605469, 2631.30490171987
566.982604980469, 2589.51590125064
567.457092285156, 2553.49310591874
567.931457519531, 2533.83600200218
568.405822753906, 2509.89029961107
568.880065917969, 2499.55758092009
569.354125976563, 2469.1706678823
569.828247070313, 2449.01031312409
570.302124023438, 2423.02996935016
570.776000976563, 2419.43723767608
571.249755859375, 2375.95606472491
571.723327636719, 2350.48476723117
572.196899414063, 2328.59063176715
572.670349121094, 2317.80673777551
573.143676757813, 2282.75471456998
573.617004394531, 2266.8340108235
574.090148925781, 2234.14265676616
574.563232421875, 2199.16342391866
575.036193847656, 2202.97294784371
575.509033203125, 2171.62881388234
575.981811523438, 2157.55035465336
576.454528808594, 2130.63826147395
576.927062988281, 2102.52738245728
577.399597167969, 2091.47833100399
577.871948242188, 2065.1571223532
578.344299316406, 2035.94381712164
578.816528320313, 2008.61309204827
579.28857421875, 2001.79844673028
579.760620117188, 1967.70794453964
580.232543945313, 1936.82162867807
580.704345703125, 1937.31023669012
581.176086425781, 1906.08409229442
581.647644042969, 1887.41832622134
582.119201660156, 1864.31781287771
582.590637207031, 1841.47836549373
583.061950683594, 1839.02604946236
583.533264160156, 1807.94765770667
584.004333496094, 1771.51878492054
584.475402832031, 1760.89840511282
584.946350097656, 1719.16900528692
585.417175292969, 1722.28657386009
585.887939453125, 1690.05682961421
586.358581542969, 1693.99717278829
586.8291015625, 1667.38842800752
587.299621582031, 1622.57723922577
587.769958496094, 1628.05244882567
588.240234375, 1612.5937010568
588.710388183594, 1589.50075673236
589.180419921875, 1552.29662149197
589.650451660156, 1541.75287808607
590.120300292969, 1538.9344037588
590.590148925781, 1515.57785088784
591.059814453125, 1479.69392294438
591.529357910156, 1467.71640365235
591.998840332031, 1448.54396320796
592.46826171875, 1447.43248670133
592.9375, 1418.91456960881
593.406799316406, 1394.61265144685
593.875854492188, 1387.0735427925
594.344848632813, 1389.24283360905
594.813781738281, 1352.6743656921
595.282531738281, 1336.06369893971
595.751281738281, 1321.66115084996
596.219909667969, 1301.28419166227
596.688354492188, 1292.46633852415
597.156860351563, 1264.97283722507
597.625122070313, 1274.32386334902
598.093383789063, 1244.56575426417
598.5615234375, 1228.56884827893
599.029479980469, 1213.90199262099
599.497436523438, 1212.00151612032
599.965270996094, 1181.4247981858
600.432983398438, 1168.17224310595
600.900695800781, 1152.94631027855
601.368225097656, 1156.51902644729
601.835632324219, 1113.41763921288
602.303039550781, 1114.40737500053
602.770202636719, 1107.91945381017
603.237426757813, 1094.05503928841
603.704406738281, 1086.8172656126
604.17138671875, 1061.91791434246
604.638244628906, 1041.26134097204
605.10498046875, 1039.2771419887
605.571655273438, 1032.09828734279
606.038208007813, 1008.68370209432
606.504638671875, 1011.84202891579
606.971069335938, 983.114067369678
607.437316894531, 987.288520778064
607.903503417969, 974.462250068445
608.369567871094, 959.661864224095
608.835510253906, 959.150329912892
609.301391601563, 943.667089952222
609.767150878906, 929.647668035511
610.232788085938, 911.244905570129
610.698425292969, 914.229427291527
611.163879394531, 885.349605688128
611.629272460938, 885.189563911866
612.094604492188, 860.776047694377
612.559692382813, 856.488031460098
613.024841308594, 845.612353865175
613.489807128906, 838.05035130385
613.954650878906, 829.087242222111
614.419494628906, 819.612205566812
614.884155273438, 809.855084706679
615.348754882813, 822.580863304997
615.813293457031, 781.830920779778
616.277648925781, 786.234141131821
616.742004394531, 778.26235808632
617.206176757813, 765.390964697376
617.670288085938, 754.060786555926
618.13427734375, 747.080239870844
618.59814453125, 742.808635488237
619.061950683594, 725.707401568822
619.525695800781, 730.521888291731
619.9892578125, 721.575907000497
620.452819824219, 702.979872147417
620.916198730469, 703.329106541036
621.379516601563, 697.376638626244
621.842712402344, 690.645602865389
622.305786132813, 681.596245631019
622.768798828125, 681.00200834355
623.231750488281, 664.694089864083
623.694519042969, 660.080583567151
624.157287597656, 660.094303280224
624.619873046875, 636.67748145717
625.082397460938, 633.791946145752
625.544799804688, 638.407832790219
626.007080078125, 632.531157219635
626.469360351563, 613.393343649224
626.931457519531, 618.433744236593
627.393493652344, 599.542715362097
627.855407714844, 608.216863107162
628.317199707031, 596.816417139331
628.778930664063, 587.527593506251
629.240539550781, 573.662939992494
629.702026367188, 572.825126333795
630.163513183594, 560.884675323082
630.624816894531, 562.473268444455
631.086059570313, 556.022392498012
631.547180175781, 551.055782900153
632.008117675781, 543.073220263252
632.469055175781, 545.292252766149
632.929931640625, 518.938130791994
633.390625, 528.536122754158
633.851318359375, 520.700318583784
634.311767578125, 514.267533273315
634.772216796875, 509.574754448301
635.232543945313, 491.880225969843
635.692749023438, 497.499431368434
636.152893066406, 491.160071340821
636.612915039063, 487.259007419919
637.07275390625, 488.508953499457
637.532653808594, 468.814576987703
637.992370605469, 477.264213863152
638.452026367188, 461.277425445849
638.911560058594, 457.980892924192
639.370910644531, 464.539825905328
639.830322265625, 456.013073459553
640.289489746094, 445.616315870292
640.748657226563, 431.630274475563
641.207641601563, 437.849666198232
641.666564941406, 432.347426454275
642.125366210938, 425.917315235142
642.584106445313, 421.000709111146
643.042663574219, 418.130303985126
643.501281738281, 424.560736082926
643.959655761719, 416.015924739963
644.418029785156, 406.442582295766
644.876220703125, 397.566446994363
645.334289550781, 398.734868492077
645.792358398438, 396.704298090605
646.250305175781, 392.182292023644
646.708068847656, 390.989400458818
647.165832519531, 392.614234865184
647.623413085938, 382.053755610995
648.080932617188, 383.171726941768
648.538391113281, 380.416544780935
648.995666503906, 379.738521256203
649.452880859375, 372.836786001547
649.909973144531, 366.412597331889
650.367004394531, 367.735942289568
650.823974609375, 364.415224560565
651.280700683594, 365.195462639359
651.737426757813, 356.614880804552
652.194091796875, 355.379883574514
652.650512695313, 352.754897187317
653.106994628906, 342.732605842919
653.563293457031, 347.239119007327
654.019470214844, 348.89854335752
654.4755859375, 338.846922267908
654.931579589844, 334.238331724123
655.387512207031, 333.376714865984
655.843322753906, 328.402070379856
656.298950195313, 330.190774463818
656.754638671875, 323.564673598372
657.210083007813, 316.404743302755
657.665466308594, 319.926272738233
658.120788574219, 311.529790629659
658.575927734375, 314.972157365741
659.031066894531, 315.511118832074
659.486083984375, 300.300182977317
659.94091796875, 299.105896561097
660.395751953125, 302.895045036689
660.850402832031, 293.542516345451
661.304992675781, 292.726780662811
661.759521484375, 291.536311545179
662.2138671875, 288.67301378251
662.668212890625, 280.839857393717
663.122314453125, 282.588299642311
663.576416015625, 284.737756470717
664.030395507813, 280.307338095808
664.484252929688, 273.565132855395
664.938049316406, 268.462720335744
665.391723632813, 271.094142641878
665.84521484375, 267.40320161356
666.298767089844, 260.73929362292
666.752075195313, 255.114740638478
667.205383300781, 254.208922150031
667.658569335938, 254.713350185662
668.111572265625, 250.788025741893
668.564514160156, 249.421871459333
669.017395019531, 255.665603720102
669.470092773438, 243.674181656946
669.9228515625, 234.468488678061
670.375366210938, 235.194569228983
670.827819824219, 233.262258547945
671.280151367188, 235.433524691237
671.732360839844, 228.223449129947
672.184509277344, 226.522547052558
672.636596679688, 232.405352416775
673.088500976563, 221.083347021104
673.540344238281, 219.327273403528
673.992065429688, 216.158859095036
674.443725585938, 213.875725182637
674.895263671875, 219.235587267065
675.346618652344, 203.421756493325
675.798034667969, 208.237103525675
676.249206542969, 205.646450901536
676.700317382813, 200.620024270804
677.1513671875, 199.703093344255
677.602233886719, 198.328974462372
678.053039550781, 195.779374217026
678.503784179688, 198.177682991302
678.954345703125, 191.754527789699
679.404907226563, 182.466308787916
679.855285644531, 180.343958020707
680.305603027344, 188.084960768992
680.755798339844, 185.726020156541
681.205810546875, 177.942190145654
681.655822753906, 184.607312374342
682.105712890625, 179.169401636243
682.555480957031, 180.771693184452
683.005249023438, 173.124588638145
683.454772949219, 173.076170806916
683.904235839844, 170.445647277709
684.353637695313, 168.432347215968
684.802856445313, 172.925430612718
685.252136230469, 167.477711460023
685.701110839844, 157.384517713097
686.150085449219, 159.7752500765
686.598999023438, 162.236957921393
687.047668457031, 155.103512002033
687.496337890625, 154.649577183421
687.944885253906, 153.029014458719
688.393310546875, 153.778364976805
688.841735839844, 149.353420945471
689.289916992188, 148.876096425347
689.738098144531, 152.576723234154
690.186096191406, 145.132062100085
690.633972167969, 140.459642749375
691.081848144531, 143.494896157081
691.529602050781, 143.206750590119
691.977172851563, 135.484106946928
692.424743652344, 134.420968928556
692.872131347656, 138.052053300784
693.319458007813, 137.948153807896
693.766662597656, 132.364792945568
694.213684082031, 134.296776616509
694.660705566406, 131.039917206389
695.107604980469, 130.538961852325
695.554382324219, 128.216879422065
696.001159667969, 130.352830857243
696.447692871094, 122.237246951806
696.894165039063, 125.017549658321
697.340576171875, 125.242846172137
697.786804199219, 120.266350382342
698.233032226563, 121.395907453631
698.679016113281, 116.357134611927
699.125, 115.403776662258
699.570861816406, 116.557305410384
700.0166015625, 117.191132202215
700.462280273438, 113.259346119259
700.907836914063, 111.967265372042
701.353210449219, 112.479017548754
701.798645019531, 109.099899664202
702.243835449219, 107.453629984911
702.68896484375, 110.101015335008
703.133972167969, 108.287576089612
703.578857421875, 108.551482011279
704.023681640625, 109.353871664645
704.468444824219, 98.2592553364366
704.912963867188, 103.355036804568
705.357543945313, 103.276660414582
705.801940917969, 99.0143818115793
706.246215820313, 99.2238999329246
706.6904296875, 97.802905073134
707.134460449219, 96.9850992113312
707.578552246094, 91.499928176019
708.022338867188, 92.9791061493999
708.466125488281, 92.1636217151573
708.909851074219, 90.2512836490318
709.353332519531, 90.863988032711
709.796813964844, 85.1759798230825
710.240173339844, 88.92076497573
710.683410644531, 90.1620108768376
711.126647949219, 85.8394900424779
711.569641113281, 86.23217574151
712.012573242188, 80.4231321681848
712.455444335938, 83.0909587329585
712.898071289063, 83.1370746812194
713.340759277344, 83.6002248356863
713.783264160156, 83.0518487748492
714.225646972656, 77.733786826281
714.668029785156, 73.5908404756965
715.110168457031, 77.2520893074333
715.552307128906, 74.2662246280706
715.994323730469, 78.8361275579228
716.436157226563, 76.7276646236791
716.8779296875, 74.3359865758278
717.319641113281, 73.6540427127737
717.761169433594, 72.6082885190495
718.202697753906, 68.6047824218352
718.64404296875, 70.9440861922141
719.085266113281, 68.5171157209703
719.526489257813, 70.0212040817934
719.967468261719, 71.2463170046512
720.408508300781, 65.1420875528124
720.849243164063, 66.3784952093977
721.2900390625, 66.5025831918867
721.730651855469, 61.8836682770372
722.171142578125, 65.2902216994352
722.611572265625, 64.7685500072808
723.051879882813, 62.2471893499171
723.492065429688, 59.5476181690544
723.932250976563, 60.8367192972171
724.372192382813, 59.6831054410004
724.812072753906, 63.269360973267
725.251892089844, 60.2241357074704
725.691528320313, 56.7036913808171
726.131103515625, 56.5056771638214
726.570556640625, 58.9603069555369
727.009887695313, 56.5078583011649
727.44921875, 52.6830121419972
727.888305664063, 56.9403421173352
728.327392578125, 55.8105521217197
728.766357421875, 55.144503418587
729.205139160156, 54.7564376128001
729.643859863281, 54.9351204924373
730.08251953125, 52.0930209781207
730.521057128906, 53.3751339127577
730.95947265625, 49.8651065234183
731.397705078125, 50.7853677913974
731.8359375, 52.7446021809854
732.274047851563, 49.596508628603
732.711975097656, 49.5998189536866
733.14990234375, 50.7580941625887
733.587646484375, 47.335166948161
734.025329589844, 46.1268700360818
734.462890625, 46.8692404833445
734.900329589844, 46.288747238856
735.337707519531, 46.6768463856651
735.774963378906, 45.5682529879489
736.212036132813, 46.7138741447662
736.649108886719, 47.4563282356805
737.085998535156, 44.3015705708611
737.522827148438, 44.0361693634516
737.959594726563, 40.4838086805151
738.396118164063, 42.5867893334463
738.832641601563, 44.5392816756632
739.26904296875, 41.2992185735798
739.705261230469, 40.6219571335841
740.141540527344, 43.0837767470701
740.577575683594, 39.8174062571239
741.013549804688, 42.8623017631416
741.449401855469, 42.3264388749793
741.885131835938, 39.374900028734
742.320861816406, 40.0566808699835
742.75634765625, 39.837882088039
743.191772460938, 39.2921802887259
743.627136230469, 37.5023965299359
744.062316894531, 40.7134379502876
744.497436523438, 41.2789165566625
744.932434082031, 38.962658611728
745.367309570313, 36.8648283373041
745.802185058594, 35.6860944900885
746.23681640625, 36.8376838970813
746.67138671875, 39.4145628532753
747.105895996094, 38.3182458777514
747.540222167969, 36.8732536915323
747.974487304688, 38.5010198029094
748.408630371094, 37.4627617172944
748.842651367188, 37.9624172226014
749.276672363281, 34.3962745953786
749.71044921875, 35.4290503411237
750.144165039063, 35.2923511988339
750.577819824219, 34.045555609998
751.011291503906, 34.6510000317244
751.444702148438, 37.2521842569294
751.877990722656, 35.4909899997671
752.311157226563, 34.20404391324
752.744323730469, 34.8026779003189
753.17724609375, 32.6924873517937
753.610107421875, 34.1744824429043
754.042846679688, 32.6457961307978
754.475463867188, 32.8187107499031
754.908081054688, 31.8814651049874
755.340515136719, 33.8543019028441
755.772827148438, 33.3011438563541
756.205078125, 31.919630342768
756.637145996094, 29.8664630940721
757.069152832031, 32.4535980789885
757.501037597656, 30.4455262401856
757.932800292969, 31.3187896747762
758.364562988281, 32.2140431433803
758.796081542969, 31.6633774922662
759.227600097656, 29.3206912489662
759.658935546875, 28.2590297750584
760.090148925781, 31.570283129085
760.521301269531, 28.4755856131545
760.952331542969, 29.4490349275825
761.383239746094, 28.880148186904
761.814147949219, 27.4994223792473
762.244812011719, 28.3899431387443
762.675415039063, 31.4081061503498
763.105895996094, 28.1806824921433
763.536254882813, 32.2192491070843
763.966613769531, 29.1551962550086
764.396728515625, 30.3861089657061
764.826843261719, 30.6232922674141
765.256774902344, 28.0102543561414
765.686584472656, 27.7160109875905
766.116333007813, 25.4143112037127
766.546020507813, 29.6356444688879
766.975463867188, 27.1619714858106
767.404968261719, 26.6917008175636
767.834228515625, 26.5560682997435
768.263427734375, 28.1215441760225
768.692565917969, 31.0553457022711
769.121459960938, 26.564858375977
769.550354003906, 27.1554784993288
769.979125976563, 27.408706651486
770.407775878906, 26.63030057424
770.836364746094, 26.0179880327228
771.264770507813, 25.1925551462858
771.693115234375, 26.3996319931411
772.121337890625, 24.8711702018007
772.549438476563, 27.6522461507028
772.977416992188, 28.2048490153524
773.405334472656, 24.1234323152369
773.833068847656, 23.8250378383537
774.260864257813, 26.8278608178881
774.688354492188, 22.2190256785618
775.115844726563, 25.0658212630173
775.543212890625, 26.5229943170266
775.970397949219, 24.6634918543515
776.397583007813, 24.0092498083211
776.824584960938, 23.0002625606348
777.251525878906, 24.1052397169601
777.678344726563, 22.0453364507072
778.10498046875, 23.8534462929334
778.531616210938, 22.4497087789042
778.958068847656, 21.575272151713
779.384399414063, 23.2328482100236
779.810729980469, 22.2374988022671
780.236877441406, 23.7371324239125
780.662902832031, 21.1301552036055
781.0888671875, 22.0916896466119
781.5146484375, 25.7302666309911
781.940368652344, 21.9913039214524
782.366027832031, 21.5143934201149
782.791442871094, 20.8568679073756
783.216918945313, 22.1834356753099
783.642150878906, 22.0460831887321
784.067321777344, 22.9944203244304
784.492431640625, 23.8961598265833
784.917297363281, 20.9681242542144
785.342163085938, 22.813718036844
785.766906738281, 20.8335892749748
786.191589355469, 21.0610835861247
786.616088867188, 21.3102245471079
787.040466308594, 20.267782880941
787.464782714844, 21.0396580255153
787.888977050781, 21.2593770011799
788.31298828125, 21.318044000588
788.737060546875, 23.4305920915107
789.160827636719, 23.3135913153623
789.584594726563, 21.5061689963626
790.008239746094, 24.563188682299
790.431762695313, 20.6456591944407
790.855163574219, 21.2293452541456
791.278503417969, 19.1952162802531
791.70166015625, 17.1604918111673
792.124816894531, 19.6558172847666
792.547729492188, 21.0342973722569
792.970642089844, 21.6597840756686
793.393371582031, 19.0437547271309
793.815979003906, 18.8963641061971
794.238525390625, 18.7491357117273
794.660949707031, 20.1359653557963
795.083251953125, 19.2215574865895
795.505554199219, 18.6845564931509
795.927612304688, 17.3729498700527
796.349609375, 17.5979223162869
796.771484375, 18.5973846019197
797.193176269531, 18.0432485839481
797.614929199219, 20.007455126285
798.036437988281, 19.6441861643367
798.457885742188, 21.6358500531711
798.879211425781, 19.7291502745689
799.300354003906, 17.0551283419271
799.721496582031, 16.1413210230626
800.142517089844, 17.1852571668442
800.563354492188, 21.381591198481
##END=$$ End of the data block
